0,0,0,0,0,0,0,-->,130.150101,0.000008,-0.004887
0,0,0,0,0,0,0.5,-->,81.443657,19.766167,-28.130840
0,0,0,0,0,0,1,-->,28.941246,65.304550,-72.685898
0,0,0,0,0,0.5,0,-->,104.525146,-44.869900,2.235063
0,0,0,0,0,0.5,0.5,-->,64.884262,-13.538545,-22.042807
0,0,0,0,0,0.5,1,-->,24.909918,36.632671,-56.618042
0,0,0,0,0,1,0,-->,81.387947,-102.999092,5.324905
0,0,0,0,0,1,0.5,-->,51.061226,-53.257462,-15.232212
0,0,0,0,0,1,1,-->,22.380968,8.224043,-41.478165
0,0,0,0,0.5,0,0,-->,104.253174,46.646061,47.231140
0,0,0,0,0.5,0,0.5,-->,65.804138,44.121357,16.256432
0,0,0,0,0.5,0,1,-->,28.122564,51.566994,-21.695225
0,0,0,0,0.5,0.5,0,-->,79.507507,7.022441,34.063324
0,0,0,0,0.5,0.5,0.5,-->,49.556351,15.793344,9.529638
0,0,0,0,0.5,0.5,1,-->,21.581692,31.850719,-18.502666
0,0,0,0,0.5,1,0,-->,57.062866,-47.789009,20.515213
0,0,0,0,0.5,1,0.5,-->,35.480885,-19.787430,2.935533
0,0,0,0,0.5,1,1,-->,16.698874,11.452775,-16.122490
0,0,0,0,1,0,0,-->,88.721489,78.172455,128.408905
0,0,0,0,1,0,0.5,-->,57.881809,60.663448,78.513069
0,0,0,0,1,0,1,-->,29.247391,48.480740,29.933722
0,0,0,0,1,0.5,0,-->,64.427177,44.614704,89.189919
0,0,0,0,1,0.5,0.5,-->,41.312031,36.501896,50.734840
0,0,0,0,1,0.5,1,-->,20.983295,32.594143,15.685308
0,0,0,0,1,1,0,-->,40.765518,0.405339,49.792549
0,0,0,0,1,1,0.5,-->,26.189569,7.484360,24.661627
0,0,0,0,1,1,1,-->,14.373075,15.892275,4.288382
0,0,0,0.5,0,0,0,-->,85.092720,-0.999749,-0.226339
0,0,0,0.5,0,0,0.5,-->,52.800446,14.159279,-19.514559
0,0,0,0.5,0,0,1,-->,19.630188,42.942066,-46.563339
0,0,0,0.5,0,0.5,0,-->,68.592964,-31.444939,1.619982
0,0,0,0.5,0,0.5,0.5,-->,42.734318,-7.452578,-14.494984
0,0,0,0.5,0,0.5,1,-->,17.142925,25.167061,-35.542343
0,0,0,0.5,0,1,0,-->,53.489029,-69.883736,3.942083
0,0,0,0.5,0,1,0.5,-->,33.500736,-31.834068,-9.901022
0,0,0,0.5,0,1,1,-->,15.318229,10.028338,-25.633158
0,0,0,0.5,0.5,0,0,-->,68.663651,29.587833,33.619282
0,0,0,0.5,0.5,0,0.5,-->,43.712196,29.205681,12.062096
0,0,0,0.5,0.5,0,1,-->,19.058887,34.700172,-12.173186
0,0,0,0.5,0.5,0.5,0,-->,52.887756,2.786489,24.200226
0,0,0,0.5,0.5,0.5,0.5,-->,33.347683,10.697300,7.581193
0,0,0,0.5,0.5,0.5,1,-->,15.051380,22.967785,-10.370077
0,0,0,0.5,0.5,1,0,-->,37.794865,-33.098831,15.817936
0,0,0,0.5,0.5,1,0.5,-->,24.000807,-10.480149,3.087494
0,0,0,0.5,0.5,1,1,-->,12.506528,11.578579,-8.690643
0,0,0,0.5,1,0,0,-->,58.873783,50.118587,81.013725
0,0,0,0.5,1,0,0.5,-->,38.383774,40.211472,45.686096
0,0,0,0.5,1,0,1,-->,19.528921,32.595146,13.177746
0,0,0,0.5,1,0.5,0,-->,43.141357,27.036287,53.888851
0,0,0,0.5,1,0.5,0.5,-->,27.928560,24.032259,27.659878
0,0,0,0.5,1,0.5,1,-->,14.692107,23.040466,4.838425
0,0,0,0.5,1,1,0,-->,27.362219,-2.516415,26.683437
0,0,0,0.5,1,1,0.5,-->,18.654821,5.351534,11.670686
0,0,0,0.5,1,1,1,-->,11.903371,12.773994,0.030239
0,0,0,1,0,0,0,-->,19.770044,-0.282986,0.521841
0,0,0,1,0,0,0.5,-->,14.511749,9.508116,-3.845074
0,0,0,1,0,0,1,-->,11.869549,15.772976,-5.741241
0,0,0,1,0,0.5,0,-->,17.881659,-8.456378,1.129976
0,0,0,1,0,0.5,0.5,-->,11.869549,2.053372,-3.252778
0,0,0,1,0,0.5,1,-->,11.869549,8.593535,-1.313400
0,0,0,1,0,1,0,-->,14.574207,-11.524105,1.128912
0,0,0,1,0,1,0.5,-->,11.869549,3.024858,-1.577584
0,0,0,1,0,1,1,-->,11.869549,9.579172,-2.061359
0,0,0,1,0.5,0,0,-->,21.987904,3.483767,16.131357
0,0,0,1,0.5,0,0.5,-->,12.281939,9.079620,0.682953
0,0,0,1,0.5,0,1,-->,11.869549,8.820930,-0.028065
0,0,0,1,0.5,0.5,0,-->,12.989637,-2.536942,1.903113
0,0,0,1,0.5,0.5,0.5,-->,11.869549,3.875176,-0.028065
0,0,0,1,0.5,0.5,1,-->,11.869549,6.550522,-0.028065
0,0,0,1,0.5,1,0,-->,11.869549,0.133928,-0.028065
0,0,0,1,0.5,1,0.5,-->,11.869549,5.777522,-0.028065
0,0,0,1,0.5,1,1,-->,11.869549,8.128380,-0.028065
0,0,0,1,1,0,0,-->,22.482632,5.212689,18.270355
0,0,0,1,1,0,0.5,-->,13.120588,7.899647,2.128912
0,0,0,1,1,0,1,-->,11.869549,14.217872,-0.028065
0,0,0,1,1,0.5,0,-->,14.643453,-1.312176,4.754540
0,0,0,1,1,0.5,0.5,-->,11.981343,1.711208,0.164691
0,0,0,1,1,0.5,1,-->,11.869549,7.681645,-0.028065
0,0,0,1,1,1,0,-->,13.085535,-5.107412,2.068465
0,0,0,1,1,1,0.5,-->,11.869549,1.851116,-0.028065
0,0,0,1,1,1,1,-->,11.869549,8.263060,-0.028065
0,0,0.5,0,0,0,0,-->,125.441719,-5.694093,60.863136
0,0,0.5,0,0,0,0.5,-->,78.858704,11.905133,20.402588
0,0,0.5,0,0,0,1,-->,30.963839,45.710369,-30.229376
0,0,0.5,0,0,0.5,0,-->,101.390007,-47.742722,49.872711
0,0,0.5,0,0,0.5,0.5,-->,63.251720,-19.210279,16.498039
0,0,0.5,0,0,0.5,1,-->,26.035007,20.681005,-23.040808
0,0,0.5,0,0,1,0,-->,80.491875,-100.578072,41.048172
0,0,0.5,0,0,1,0.5,-->,50.587540,-56.396824,13.802007
0,0,0.5,0,0,1,1,-->,22.883045,-4.660610,-16.415119
0,0,0.5,0,0.5,0,0,-->,102.866653,44.192791,87.649284
0,0,0.5,0,0.5,0,0.5,-->,66.019707,41.998287,48.712784
0,0,0.5,0,0.5,0,1,-->,31.223553,46.825626,7.945549
0,0,0.5,0,0.5,0.5,0,-->,79.388168,5.814075,66.342003
0,0,0.5,0,0.5,0.5,0.5,-->,50.235970,14.492810,34.911697
0,0,0.5,0,0.5,0.5,1,-->,24.121761,26.735996,4.859339
0,0,0.5,0,0.5,1,0,-->,58.838989,-44.187336,46.771271
0,0,0.5,0,0.5,1,0.5,-->,37.229984,-19.652697,23.713562
0,0,0.5,0,0.5,1,1,-->,17.884943,6.640106,0.242845
0,0,0.5,0,1,0,0,-->,89.828102,75.326752,134.383240
0,0,0.5,0,1,0,0.5,-->,59.574371,60.025448,82.221619
0,0,0.5,0,1,0,1,-->,32.726738,50.109634,35.932598
0,0,0.5,0,1,0.5,0,-->,66.576630,41.890251,94.294518
0,0,0.5,0,1,0.5,0.5,-->,43.799778,35.710903,55.024048
0,0,0.5,0,1,0.5,1,-->,23.514130,33.691525,20.048811
0,0,0.5,0,1,1,0,-->,45.444775,0.537466,57.860264
0,0,0.5,0,1,1,0.5,-->,29.189327,8.027898,29.833651
0,0,0.5,0,1,1,1,-->,11.869549,17.305191,-0.028065
0,0,0.5,0.5,0,0,0,-->,81.113312,-5.178301,37.658176
0,0,0.5,0.5,0,0,0.5,-->,51.296310,8.427667,12.002180
0,0,0.5,0.5,0,0,1,-->,20.696836,31.636091,-18.462465
0,0,0.5,0.5,0,0.5,0,-->,66.421730,-33.599224,32.285339
0,0,0.5,0.5,0,0.5,0.5,-->,41.627979,-11.587562,10.372524
0,0,0.5,0.5,0,0.5,1,-->,17.707308,15.725129,-13.523330
0,0,0.5,0.5,0,1,0,-->,53.082764,-68.851608,28.734856
0,0,0.5,0.5,0,1,0.5,-->,33.290527,-34.619061,9.672920
0,0,0.5,0.5,0,1,1,-->,15.144912,2.244593,-9.691540
0,0,0.5,0.5,0.5,0,0,-->,67.716171,27.625589,57.868439
0,0,0.5,0.5,0.5,0,0.5,-->,43.697220,27.723213,31.659847
0,0,0.5,0.5,0.5,0,1,-->,20.762131,32.514118,5.242966
0,0,0.5,0.5,0.5,0.5,0,-->,52.740906,1.997971,43.946365
0,0,0.5,0.5,0.5,0.5,0.5,-->,37.930290,7.257405,28.375547
0,0,0.5,0.5,0.5,0.5,1,-->,16.177576,21.183643,1.202658
0,0,0.5,0.5,0.5,1,0,-->,39.112499,-30.925932,32.447971
0,0,0.5,0.5,0.5,1,0.5,-->,28.591745,-19.444073,20.574991
0,0,0.5,0.5,0.5,1,1,-->,14.056681,8.371673,0.972755
0,0,0.5,0.5,1,0,0,-->,59.695087,48.494053,82.429756
0,0,0.5,0.5,1,0,0.5,-->,39.576103,39.954269,47.741848
0,0,0.5,0.5,1,0,1,-->,21.187073,34.984200,16.036636
0,0,0.5,0.5,1,0.5,0,-->,44.646706,25.619600,56.484280
0,0,0.5,0.5,1,0.5,0.5,-->,32.223927,24.345726,35.065712
0,0,0.5,0.5,1,0.5,1,-->,17.735521,18.682161,10.085685
0,0,0.5,0.5,1,1,0,-->,30.424383,-2.052088,31.963041
0,0,0.5,0.5,1,1,0.5,-->,19.320433,7.495941,12.818316
0,0,0.5,0.5,1,1,1,-->,11.869549,12.999003,-0.028065
0,0,0.5,1,0,0,0,-->,19.047318,-3.155829,5.862211
0,0,0.5,1,0,0,0.5,-->,12.014046,4.949105,0.221065
0,0,0.5,1,0,0,1,-->,11.869549,9.100079,-0.166408
0,0,0.5,1,0,0.5,0,-->,17.048481,-11.308490,6.594250
0,0,0.5,1,0,0.5,0.5,-->,11.869549,0.927614,-0.028065
0,0,0.5,1,0,0.5,1,-->,11.869549,7.001269,-0.028065
0,0,0.5,1,0,1,0,-->,15.377209,-14.985324,6.019629
0,0,0.5,1,0,1,0.5,-->,11.869549,2.203205,-0.028065
0,0,0.5,1,0,1,1,-->,11.869549,7.872820,-0.028065
0,0,0.5,1,0.5,0,0,-->,21.001276,3.575251,15.716299
0,0,0.5,1,0.5,0,0.5,-->,11.941724,8.317928,0.096370
0,0,0.5,1,0.5,0,1,-->,11.869549,7.648055,-0.028065
0,0,0.5,1,0.5,0.5,0,-->,12.549074,-2.505160,1.143533
0,0,0.5,1,0.5,0.5,0.5,-->,13.288942,0.566512,1.374151
0,0,0.5,1,0.5,0.5,1,-->,11.869549,6.996527,-2.157593
0,0,0.5,1,0.5,1,0,-->,11.869549,0.133928,-0.028065
0,0,0.5,1,0.5,1,0.5,-->,11.938773,-0.164463,0.091309
0,0,0.5,1,0.5,1,1,-->,11.869549,4.874477,-1.514082
0,0,0.5,1,1,0,0,-->,22.756485,6.597031,18.742517
0,0,0.5,1,1,0,0.5,-->,13.094952,8.692300,2.084713
0,0,0.5,1,1,0,1,-->,11.869549,10.460177,-0.028065
0,0,0.5,1,1,0.5,0,-->,14.386612,-0.837718,4.311712
0,0,0.5,1,1,0.5,0.5,-->,14.942607,3.111615,5.270294
0,0,0.5,1,1,0.5,1,-->,11.869549,6.707651,-0.028065
0,0,0.5,1,1,1,0,-->,11.869549,0.133928,-0.028065
0,0,0.5,1,1,1,0.5,-->,11.869549,0.133928,-0.028065
0,0,0.5,1,1,1,1,-->,11.869549,4.082281,-0.028065
0,0,1,0,0,0,0,-->,121.658028,-5.765195,129.828720
0,0,1,0,0,0,0.5,-->,77.296890,9.929300,76.070618
0,0,1,0,0,0,1,-->,34.485195,35.553165,18.935379
0,0,1,0,0,0.5,0,-->,99.240013,-45.732941,101.233963
0,0,1,0,0,0.5,0.5,-->,62.444244,-20.053173,58.212048
0,0,1,0,0,0.5,1,-->,28.550423,11.682921,14.052231
0,0,1,0,0,1,0,-->,80.710266,-94.247757,77.977203
0,0,1,0,0,1,0.5,-->,50.880981,-54.830517,44.040405
0,0,1,0,0,1,1,-->,24.870405,-13.197399,10.756835
0,0,1,0,0.5,0,0,-->,102.102020,43.832130,130.296524
0,0,1,0,0.5,0,0.5,-->,66.427559,41.963253,82.063568
0,0,1,0,0.5,0,1,-->,34.898827,46.264500,38.344177
0,0,1,0,0.5,0.5,0,-->,79.863205,6.490394,97.994438
0,0,1,0,0.5,0.5,0.5,-->,51.472710,14.672480,60.628689
0,0,1,0,0.5,0.5,1,-->,26.633913,26.262039,25.427757
0,0,1,0,0.5,1,0,-->,61.334282,-39.111217,71.770798
0,0,1,0,0.5,1,0.5,-->,39.610500,-19.078989,44.258892
0,0,1,0,0.5,1,1,-->,21.113518,5.526340,15.909800
0,0,1,0,1,0,0,-->,91.057602,72.395683,136.503082
0,0,1,0,1,0,0.5,-->,61.117928,59.222733,84.882935
0,0,1,0,1,0,1,-->,36.297501,51.705032,42.089104
0,0,1,0,1,0.5,0,-->,68.892853,39.122524,98.287994
0,0,1,0,1,0.5,0.5,-->,46.538570,35.975990,59.746117
0,0,1,0,1,0.5,1,-->,27.100170,34.049221,26.231642
0,0,1,0,1,1,0,-->,49.970779,0.459920,65.663719
0,0,1,0,1,1,0.5,-->,33.312328,7.801232,36.942265
0,0,1,0,1,1,1,-->,20.457985,15.818422,14.779588
0,0,1,0.5,0,0,0,-->,78.248901,-6.185924,84.143738
0,0,1,0.5,0,0,0.5,-->,50.061829,6.325300,48.850842
0,0,1,0.5,0,0,1,-->,22.486195,25.514179,11.486609
0,0,1,0.5,0,0.5,0,-->,64.833801,-33.361996,66.846748
0,0,1,0.5,0,0.5,0.5,-->,40.933308,-13.194815,37.375305
0,0,1,0.5,0,0.5,1,-->,18.644236,9.872395,9.116037
0,0,1,0.5,0,1,0,-->,53.397621,-65.324974,53.626896
0,0,1,0.5,0,1,0.5,-->,33.837376,-36.804596,29.681461
0,0,1,0.5,0,1,1,-->,16.753115,-3.541554,7.000539
0,0,1,0.5,0.5,0,0,-->,66.997726,27.047367,85.089478
0,0,1,0.5,0.5,0,0.5,-->,43.785252,27.546112,52.709564
0,0,1,0.5,0.5,0,1,-->,22.334667,32.920135,18.015236
0,0,1,0.5,0.5,0.5,0,-->,52.956657,2.029768,64.304657
0,0,1,0.5,0.5,0.5,0.5,-->,37.858379,6.569597,44.780270
0,0,1,0.5,0.5,0.5,1,-->,18.598091,14.888110,11.572895
0,0,1,0.5,0.5,1,0,-->,40.796032,-28.019529,48.559959
0,0,1,0.5,0.5,1,0.5,-->,30.037979,-18.016710,30.811977
0,0,1,0.5,0.5,1,1,-->,16.412373,3.706876,7.804379
0,0,1,0.5,1,0,0,-->,60.562210,46.819862,83.924812
0,0,1,0.5,1,0,0.5,-->,40.909027,40.385319,50.040009
0,0,1,0.5,1,0,1,-->,23.778181,36.237324,20.504057
0,0,1,0.5,1,0.5,0,-->,46.178856,24.081108,59.125916
0,0,1,0.5,1,0.5,0.5,-->,34.232830,23.966993,38.529316
0,0,1,0.5,1,0.5,1,-->,20.688274,24.890268,15.176652
0,0,1,0.5,1,1,0,-->,33.286877,-1.852378,36.898369
0,0,1,0.5,1,1,0.5,-->,25.893894,3.246447,24.151846
0,0,1,0.5,1,1,1,-->,15.495136,10.637537,6.222964
0,0,1,1,0,0,0,-->,18.660938,-5.732729,11.541250
0,0,1,1,0,0,0.5,-->,12.028468,2.870146,0.245946
0,0,1,1,0,0,1,-->,11.869549,13.043857,-0.028065
0,0,1,1,0,0.5,0,-->,18.042225,-13.092228,10.614480
0,0,1,1,0,0.5,0.5,-->,11.869549,0.133928,-0.692931
0,0,1,1,0,0.5,1,-->,11.869549,7.263956,-0.028065
0,0,1,1,0,1,0,-->,16.528759,-19.948883,8.005084
0,0,1,1,0,1,0.5,-->,11.869549,0.133928,-0.028065
0,0,1,1,0,1,1,-->,11.869549,6.960550,-0.028065
0,0,1,1,0.5,0,0,-->,22.013096,3.621532,17.460815
0,0,1,1,0.5,0,0.5,-->,12.268424,8.630728,0.659667
0,0,1,1,0.5,0,1,-->,11.869549,10.377402,-0.028065
0,0,1,1,0.5,0.5,0,-->,12.954482,-3.318856,1.842514
0,0,1,1,0.5,0.5,0.5,-->,13.150125,-2.093406,2.179814
0,0,1,1,0.5,0.5,1,-->,11.869549,6.282302,-0.028065
0,0,1,1,0.5,1,0,-->,11.920356,-0.085062,0.059558
0,0,1,1,0.5,1,0.5,-->,12.074145,-0.747959,0.324693
0,0,1,1,0.5,1,1,-->,11.869549,3.499589,-0.028065
0,0,1,1,1,0,0,-->,23.268963,7.777293,19.626091
0,0,1,1,1,0,0.5,-->,13.193295,12.280112,2.254275
0,0,1,1,1,0,1,-->,11.869549,15.601925,-0.028065
0,0,1,1,1,0.5,0,-->,15.089108,0.621259,5.522920
0,0,1,1,1,0.5,0.5,-->,15.615404,4.758584,6.430296
0,0,1,1,1,0.5,1,-->,11.869549,7.708623,-0.028065
0,0,1,1,1,1,0,-->,14.249578,-6.031112,4.075441
0,0,1,1,1,1,0.5,-->,12.070059,-0.730351,0.317625
0,0,1,1,1,1,1,-->,11.869549,0.133928,-1.875534
0,0.5,0,0,0,0,0,-->,95.785400,47.404121,-6.333781
0,0.5,0,0,0,0,0.5,-->,61.254589,48.416084,-25.916273
0,0.5,0,0,0,0,1,-->,26.527897,62.907974,-53.165897
0,0.5,0,0,0,0.5,0,-->,74.474289,2.502979,-7.948231
0,0.5,0,0,0,0.5,0.5,-->,47.155113,16.410521,-23.591946
0,0.5,0,0,0,0.5,1,-->,21.034557,40.200283,-44.224815
0,0.5,0,0,0,1,0,-->,55.348351,-58.845749,-9.266152
0,0.5,0,0,0,1,0.5,-->,35.121906,-22.874880,-21.302515
0,0.5,0,0,0,1,1,-->,17.059277,17.540884,-36.249004
0,0.5,0,0,0.5,0,0,-->,81.637772,72.759781,40.446739
0,0.5,0,0,0.5,0,0.5,-->,53.122406,60.851402,16.286177
0,0.5,0,0,0.5,0,1,-->,26.972433,54.054676,-9.436992
0,0.5,0,0,0.5,0.5,0,-->,60.127171,34.414547,25.263332
0,0.5,0,0,0.5,0.5,0.5,-->,38.824661,32.873531,7.599372
0,0.5,0,0,0.5,0.5,1,-->,19.863693,35.548710,-10.626563
0,0.5,0,0,0.5,1,0,-->,39.680668,-19.161026,9.088755
0,0.5,0,0,0.5,1,0.5,-->,24.733307,0.812130,-3.372122
0,0.5,0,0,0.5,1,1,-->,13.087519,19.286966,-14.003526
0,0.5,0,0,1,0,0,-->,74.099136,87.723152,105.703102
0,0.5,0,0,1,0,0.5,-->,49.805302,67.965515,65.378403
0,0.5,0,0,1,0,1,-->,28.555531,53.155476,28.740875
0,0.5,0,0,1,0.5,0,-->,52.478874,54.929237,69.988045
0,0.5,0,0,1,0.5,0.5,-->,34.826721,44.271858,39.553288
0,0.5,0,0,1,0.5,1,-->,19.650896,37.176910,13.388072
0,0.5,0,0,1,1,0,-->,30.760330,12.612336,32.542252
0,0.5,0,0,1,1,0.5,-->,19.890188,16.461317,13.800624
0,0.5,0,0,1,1,1,-->,11.869549,17.131693,-0.028065
0,0.5,0,0.5,0,0,0,-->,63.140602,29.315922,-4.347886
0,0.5,0,0.5,0,0,0.5,-->,40.439114,32.016483,-17.129959
0,0.5,0,0.5,0,0,1,-->,18.016117,41.554668,-33.504185
0,0.5,0,0.5,0,0.5,0,-->,49.263813,0.201230,-5.219119
0,0.5,0,0.5,0,0.5,0.5,-->,31.754196,11.438777,-14.801254
0,0.5,0,0.5,0,0.5,1,-->,14.629048,27.853577,-27.256622
0,0.5,0,0.5,0,1,0,-->,35.888424,-38.466499,-6.077470
0,0.5,0,0.5,0,1,0.5,-->,23.351662,-10.850682,-13.449675
0,0.5,0,0.5,0,1,1,-->,12.581791,15.193432,-21.673124
0,0.5,0,0.5,0.5,0,0,-->,54.504730,46.153622,28.377918
0,0.5,0,0.5,0.5,0,0.5,-->,35.961315,39.281815,11.987589
0,0.5,0,0.5,0.5,0,1,-->,18.317533,36.440098,-4.870875
0,0.5,0,0.5,0.5,0.5,0,-->,40.621986,20.148138,18.206198
0,0.5,0,0.5,0.5,0.5,0.5,-->,28.702608,23.758186,7.418121
0,0.5,0,0.5,0.5,0.5,1,-->,13.620564,27.002226,-8.415492
0,0.5,0,0.5,0.5,1,0,-->,26.383274,-13.887092,7.518558
0,0.5,0,0.5,0.5,1,0.5,-->,19.878027,-2.897763,2.144263
0,0.5,0,0.5,0.5,1,1,-->,12.011989,14.447957,-6.753537
0,0.5,0,0.5,1,0,0,-->,49.599453,56.624264,65.023499
0,0.5,0,0.5,1,0,0.5,-->,33.519352,44.845551,37.299202
0,0.5,0,0.5,1,0,1,-->,19.202024,35.658054,12.614130
0,0.5,0,0.5,1,0.5,0,-->,35.577656,33.764008,40.848000
0,0.5,0,0.5,1,0.5,0.5,-->,25.505379,31.999733,23.481987
0,0.5,0,0.5,1,0.5,1,-->,15.611333,19.791018,6.423289
0,0.5,0,0.5,1,1,0,-->,20.655628,5.472778,15.120354
0,0.5,0,0.5,1,1,0.5,-->,13.314354,17.232843,2.463005
0,0.5,0,0.5,1,1,1,-->,11.869549,13.477246,-0.028065
0,0.5,0,1,0,0,0,-->,16.781395,8.448231,3.149020
0,0.5,0,1,0,0,0.5,-->,12.614197,13.117694,-1.491200
0,0.5,0,1,0,0,1,-->,11.869549,15.427864,-2.962192
0,0.5,0,1,0,0.5,0,-->,11.991082,-0.303383,-0.964897
0,0.5,0,1,0,0.5,0.5,-->,11.869549,4.405552,-2.070471
0,0.5,0,1,0,0.5,1,-->,11.869549,7.543119,-0.028065
0,0.5,0,1,0,1,0,-->,11.869549,0.133928,-1.484322
0,0.5,0,1,0,1,0.5,-->,11.869549,6.232008,-1.794537
0,0.5,0,1,0,1,1,-->,11.869549,8.627126,-0.444842
0,0.5,0,1,0.5,0,0,-->,19.623953,8.503389,13.341593
0,0.5,0,1,0.5,0,0.5,-->,11.870587,9.842756,-0.026272
0,0.5,0,1,0.5,0,1,-->,11.869549,8.672738,-0.028065
0,0.5,0,1,0.5,0.5,0,-->,12.029369,2.207294,0.247496
0,0.5,0,1,0.5,0.5,0.5,-->,13.097551,2.004476,0.025314
0,0.5,0,1,0.5,0.5,1,-->,11.869549,7.403925,-2.694489
0,0.5,0,1,0.5,1,0,-->,11.869549,0.133928,-0.028065
0,0.5,0,1,0.5,1,0.5,-->,11.872515,0.121145,-0.690788
0,0.5,0,1,0.5,1,1,-->,11.869549,5.089424,-1.935844
0,0.5,0,1,1,0,0,-->,21.427902,9.162821,16.451878
0,0.5,0,1,1,0,0.5,-->,12.736871,8.239820,1.467322
0,0.5,0,1,1,0,1,-->,11.869549,10.080137,-0.028065
0,0.5,0,1,1,0.5,0,-->,13.176065,-0.160602,2.224545
0,0.5,0,1,1,0.5,0.5,-->,14.771355,3.571831,4.975050
0,0.5,0,1,1,0.5,1,-->,11.869549,6.865297,-0.028065
0,0.5,0,1,1,1,0,-->,11.869549,0.133928,-0.028065
0,0.5,0,1,1,1,0.5,-->,11.869549,0.133928,-0.028065
0,0.5,0,1,1,1,1,-->,11.869549,4.209528,-0.028065
0,0.5,0.5,0,0,0,0,-->,92.754898,43.465313,40.557678
0,0.5,0.5,0,0,0,0.5,-->,59.950550,43.264244,12.900270
0,0.5,0.5,0,0,0,1,-->,28.257456,51.988377,-18.714998
0,0.5,0.5,0,0,0.5,0,-->,72.447319,0.385672,29.622656
0,0.5,0.5,0,0,0.5,0.5,-->,46.162209,12.353767,7.209194
0,0.5,0.5,0,0,0.5,1,-->,21.841669,30.871817,-17.154552
0,0.5,0.5,0,0,1,0,-->,54.743122,-57.613892,19.883945
0,0.5,0.5,0,0,1,0.5,-->,34.890976,-26.397799,2.704870
0,0.5,0.5,0,0,1,1,-->,16.851355,9.553410,-16.384167
0,0.5,0.5,0,0.5,0,0,-->,80.374458,71.571205,71.752289
0,0.5,0.5,0,0.5,0,0.5,-->,53.555470,59.111233,41.774784
0,0.5,0.5,0,0.5,0,1,-->,29.292942,51.871662,14.322351
0,0.5,0.5,0,0.5,0.5,0,-->,60.118275,33.702938,50.305630
0,0.5,0.5,0,0.5,0.5,0.5,-->,44.172165,33.022545,33.117619
0,0.5,0.5,0,0.5,0.5,1,-->,19.820396,38.312424,1.922674
0,0.5,0.5,0,0.5,1,0,-->,41.144360,-16.199709,30.655546
0,0.5,0.5,0,0.5,1,0.5,-->,31.386257,-6.804424,20.576967
0,0.5,0.5,0,0.5,1,1,-->,15.701466,18.438944,-0.514325
0,0.5,0.5,0,1,0,0,-->,74.684967,86.250031,108.274406
0,0.5,0.5,0,1,0,0.5,-->,51.129593,68.150597,67.661667
0,0.5,0.5,0,1,0,1,-->,30.770767,55.097569,32.560249
0,0.5,0.5,0,1,0.5,0,-->,53.891945,54.039188,72.424347
0,0.5,0.5,0,1,0.5,0.5,-->,39.110050,48.378876,46.938328
0,0.5,0.5,0,1,0.5,1,-->,21.783638,36.555580,17.065210
0,0.5,0.5,0,1,1,0,-->,33.725311,14.877653,37.654301
0,0.5,0.5,0,1,1,0.5,-->,22.261576,23.813498,17.889235
0,0.5,0.5,0,1,1,1,-->,11.869549,12.069862,-3.324738
0,0.5,0.5,0.5,0,0,0,-->,60.609783,25.992664,26.453777
0,0.5,0.5,0.5,0,0,0.5,-->,39.754387,27.872576,8.305784
0,0.5,0.5,0.5,0,0,1,-->,18.972752,35.275978,-10.952411
0,0.5,0.5,0.5,0,0.5,0,-->,47.879833,-1.827740,19.290281
0,0.5,0.5,0.5,0,0.5,0.5,-->,33.733860,10.175907,8.763401
0,0.5,0.5,0.5,0,0.5,1,-->,14.702527,23.960793,-10.306993
0,0.5,0.5,0.5,0,1,0,-->,35.785988,-38.646564,13.911623
0,0.5,0.5,0.5,0,1,0.5,-->,24.924532,-16.352955,5.538940
0,0.5,0.5,0.5,0,1,1,-->,12.781487,11.320209,-7.870578
0,0.5,0.5,0.5,0.5,0,0,-->,53.873329,44.784130,47.750267
0,0.5,0.5,0.5,0.5,0,0.5,-->,37.457962,42.669529,29.933540
0,0.5,0.5,0.5,0.5,0,1,-->,18.112280,37.553909,5.572241
0,0.5,0.5,0.5,0.5,0.5,0,-->,43.529194,17.629679,38.713745
0,0.5,0.5,0.5,0.5,0.5,0.5,-->,29.341646,22.340559,21.491259
0,0.5,0.5,0.5,0.5,0.5,1,-->,13.406077,25.229879,0.866361
0,0.5,0.5,0.5,0.5,1,0,-->,31.649521,-18.657030,26.765711
0,0.5,0.5,0.5,0.5,1,0.5,-->,20.991995,-4.989490,14.081170
0,0.5,0.5,0.5,0.5,1,1,-->,12.156777,11.701237,-11.424581
0,0.5,0.5,0.5,1,0,0,-->,50.082527,56.015354,65.856384
0,0.5,0.5,0.5,1,0,0.5,-->,34.204937,51.906925,38.481213
0,0.5,0.5,0.5,1,0,1,-->,19.993156,31.718927,13.978150
0,0.5,0.5,0.5,1,0.5,0,-->,38.083691,33.885433,45.168732
0,0.5,0.5,0.5,1,0.5,0.5,-->,25.755388,32.604492,23.913021
0,0.5,0.5,0.5,1,0.5,1,-->,15.094953,24.574673,5.533012
0,0.5,0.5,0.5,1,1,0,-->,21.998312,10.112587,17.435310
0,0.5,0.5,0.5,1,1,0.5,-->,17.947992,8.106067,10.452016
0,0.5,0.5,0.5,1,1,1,-->,11.869549,8.646732,-1.960771
0,0.5,0.5,1,0,0,0,-->,16.715675,4.490561,7.186532
0,0.5,0.5,1,0,0,0.5,-->,11.869549,7.017653,-0.028065
0,0.5,0.5,1,0,0,1,-->,11.869549,8.575783,-0.028065
0,0.5,0.5,1,0,0.5,0,-->,11.882339,0.078770,-0.005996
0,0.5,0.5,1,0,0.5,0.5,-->,13.067209,1.344801,-0.252679
0,0.5,0.5,1,0,0.5,1,-->,11.869549,7.873945,-2.713868
0,0.5,0.5,1,0,1,0,-->,11.869549,0.133928,-0.028065
0,0.5,0.5,1,0,1,0.5,-->,11.896204,0.019022,-0.379790
0,0.5,0.5,1,0,1,1,-->,11.869549,5.477748,-1.789256
0,0.5,0.5,1,0.5,0,0,-->,19.305086,8.290159,12.791839
0,0.5,0.5,1,0.5,0,0.5,-->,14.726419,4.803771,3.101173
0,0.5,0.5,1,0.5,0,1,-->,11.869549,10.153959,-1.638389
0,0.5,0.5,1,0.5,0.5,0,-->,14.411214,1.127362,2.533484
0,0.5,0.5,1,0.5,0.5,0.5,-->,13.845146,0.944257,-0.297760
0,0.5,0.5,1,0.5,0.5,1,-->,11.869549,7.482049,-3.491139
0,0.5,0.5,1,0.5,1,0,-->,11.888538,0.052065,0.004674
0,0.5,0.5,1,0.5,1,0.5,-->,11.874008,0.114701,-0.778046
0,0.5,0.5,1,0.5,1,1,-->,11.869549,4.733353,-2.145426
0,0.5,0.5,1,1,0,0,-->,21.277012,10.554656,16.191698
0,0.5,0.5,1,1,0,0.5,-->,16.628757,6.907627,8.177488
0,0.5,0.5,1,1,0,1,-->,11.869549,9.711207,-0.028065
0,0.5,0.5,1,1,0.5,0,-->,16.403854,4.038993,7.789681
0,0.5,0.5,1,1,0.5,0.5,-->,15.579876,3.822603,6.369059
0,0.5,0.5,1,1,0.5,1,-->,11.869549,6.785213,-0.028065
0,0.5,0.5,1,1,1,0,-->,11.870253,0.130873,-0.026849
0,0.5,0.5,1,1,1,0.5,-->,11.869549,0.133928,-0.028065
0,0.5,0.5,1,1,1,1,-->,11.869549,4.082463,-0.028065
0,0.5,1,0,0,0,0,-->,89.848610,44.097507,94.306557
0,0.5,1,0,0,0,0.5,-->,59.214340,42.369572,56.264301
0,0.5,1,0,0,0,1,-->,30.862492,48.004700,17.977011
0,0.5,1,0,0,0.5,0,-->,70.986389,1.975658,69.615784
0,0.5,1,0,0,0.5,0.5,-->,45.859230,12.088436,39.980442
0,0.5,1,0,0,0.5,1,-->,23.237415,27.527311,10.468993
0,0.5,1,0,0,1,0,-->,55.166786,-52.548344,49.069054
0,0.5,1,0,0,1,0.5,-->,35.108162,-26.229324,26.372963
0,0.5,1,0,0,1,1,-->,18.489235,5.114670,3.825293
0,0.5,1,0,0.5,0,0,-->,80.071609,71.540596,103.853271
0,0.5,1,0,0.5,0,0.5,-->,53.691959,61.138546,66.921608
0,0.5,1,0,0.5,0,1,-->,31.549545,54.365650,33.902958
0,0.5,1,0,0.5,0.5,0,-->,60.408325,34.999519,74.194489
0,0.5,1,0,0.5,0.5,0.5,-->,44.046799,33.187305,53.103222
0,0.5,1,0,0.5,0.5,1,-->,22.473850,33.523891,18.255232
0,0.5,1,0,0.5,1,0,-->,43.140759,-11.812023,50.254818
0,0.5,1,0,0.5,1,0.5,-->,32.662312,-3.857849,32.977345
0,0.5,1,0,0.5,1,1,-->,14.405510,-0.467899,-2.632765
0,0.5,1,0,1,0,0,-->,75.219788,84.918518,109.196480
0,0.5,1,0,1,0,0.5,-->,51.979149,69.258270,69.126427
0,0.5,1,0,1,0,1,-->,33.697460,57.297436,37.606270
0,0.5,1,0,1,0.5,0,-->,55.167816,53.495968,74.624130
0,0.5,1,0,1,0.5,0.5,-->,40.803551,48.227657,49.858150
0,0.5,1,0,1,0.5,1,-->,22.145407,37.088406,17.688940
0,0.5,1,0,1,1,0,-->,37.408955,16.079590,44.005371
0,0.5,1,0,1,1,0.5,-->,29.982563,7.022821,31.201258
0,0.5,1,0,1,1,1,-->,12.171618,15.943040,0.492750
0,0.5,1,0.5,0,0,0,-->,58.503036,25.041044,62.551338
0,0.5,1,0.5,0,0,0.5,-->,39.023556,26.628006,36.409184
0,0.5,1,0.5,0,0,1,-->,19.939503,33.294460,11.302958
0,0.5,1,0.5,0,0.5,0,-->,46.883995,-1.899716,46.074131
0,0.5,1,0.5,0,0.5,0.5,-->,33.000427,8.908934,30.862545
0,0.5,1,0.5,0,0.5,1,-->,16.918402,15.879614,8.676857
0,0.5,1,0.5,0,1,0,-->,36.160023,-36.585567,33.164581
0,0.5,1,0.5,0,1,0.5,-->,25.855511,-15.997278,18.826281
0,0.5,1,0.5,0,1,1,-->,14.192036,2.166530,3.976236
0,0.5,1,0.5,0.5,0,0,-->,53.371941,44.469734,68.435341
0,0.5,1,0.5,0.5,0,0.5,-->,37.072639,42.161404,43.425568
0,0.5,1,0.5,0.5,0,1,-->,20.370237,32.275066,14.628325
0,0.5,1,0.5,0.5,0.5,0,-->,43.251163,17.050072,54.078159
0,0.5,1,0.5,0.5,0.5,0.5,-->,28.955793,21.506687,29.430979
0,0.5,1,0.5,0.5,0.5,1,-->,16.268278,20.926092,7.412771
0,0.5,1,0.5,0.5,1,0,-->,33.259689,-17.073168,36.326607
0,0.5,1,0.5,0.5,1,0.5,-->,29.156212,-20.119183,24.589325
0,0.5,1,0.5,0.5,1,1,-->,12.147193,1.685886,-1.929597
0,0.5,1,0.5,1,0,0,-->,50.494068,55.416416,66.565933
0,0.5,1,0.5,1,0,0.5,-->,35.787731,51.910862,41.210194
0,0.5,1,0.5,1,0,1,-->,22.814724,33.448048,18.842937
0,0.5,1,0.5,1,0.5,0,-->,39.934372,33.366032,48.359558
0,0.5,1,0.5,1,0.5,0.5,-->,34.482006,30.477047,38.958923
0,0.5,1,0.5,1,0.5,1,-->,16.817677,25.065271,8.503222
0,0.5,1,0.5,1,1,0,-->,26.094452,10.762292,24.497643
0,0.5,1,0.5,1,1,0.5,-->,22.144104,3.621122,17.686691
0,0.5,1,0.5,1,1,1,-->,11.920532,8.880860,-0.033263
0,0.5,1,1,0,0,0,-->,16.956432,0.655138,8.742441
0,0.5,1,1,0,0,0.5,-->,11.869549,5.803786,-0.760772
0,0.5,1,1,0,0,1,-->,11.869549,9.989854,-0.028065
0,0.5,1,1,0,0.5,0,-->,11.918088,-0.075304,0.055621
0,0.5,1,1,0,0.5,0.5,-->,12.848747,-1.692277,1.660214
0,0.5,1,1,0,0.5,1,-->,11.869549,6.921549,-0.028065
0,0.5,1,1,0,1,0,-->,11.869549,0.133928,-0.028065
0,0.5,1,1,0,1,0.5,-->,12.003104,-0.441742,0.202202
0,0.5,1,1,0,1,1,-->,11.869549,4.074620,-0.028065
0,0.5,1,1,0.5,0,0,-->,20.266033,7.810260,14.448641
0,0.5,1,1,0.5,0,0.5,-->,14.593027,2.058357,4.667601
0,0.5,1,1,0.5,0,1,-->,11.869549,9.193356,-0.028065
0,0.5,1,1,0.5,0.5,0,-->,14.250795,-1.582349,4.077523
0,0.5,1,1,0.5,0.5,0.5,-->,13.417231,-2.097579,2.640364
0,0.5,1,1,0.5,0.5,1,-->,11.869549,6.310329,-0.028065
0,0.5,1,1,0.5,1,0,-->,12.530782,-2.716216,1.111980
0,0.5,1,1,0.5,1,0.5,-->,12.067368,-0.718747,0.313004
0,0.5,1,1,0.5,1,1,-->,11.869549,3.509925,-0.272468
0,0.5,1,1,1,0,0,-->,21.884365,11.942478,17.238861
0,0.5,1,1,1,0,0.5,-->,17.376785,8.151452,9.467169
0,0.5,1,1,1,0,1,-->,11.869549,10.541903,-0.028065
0,0.5,1,1,1,0.5,0,-->,17.061663,5.636580,8.923874
0,0.5,1,1,1,0.5,0.5,-->,16.163710,5.321957,7.375685
0,0.5,1,1,1,0.5,1,-->,11.869549,7.439932,-0.028065
0,0.5,1,1,1,1,0,-->,11.936203,-0.153383,0.086856
0,0.5,1,1,1,1,0.5,-->,11.882520,0.078040,-0.005677
0,0.5,1,1,1,1,1,-->,11.869549,0.321410,-2.101424
0,1,0,0,0,0,0,-->,65.549782,100.187927,-2.226088
0,1,0,0,0,0,0.5,-->,43.991749,77.657173,-16.096027
0,1,0,0,0,0,1,-->,25.443727,61.316177,-31.808716
0,1,0,0,0,0.5,0,-->,45.825844,62.648491,-13.610270
0,1,0,0,0,0.5,0.5,-->,30.649017,50.468685,-21.375092
0,1,0,0,0,0.5,1,-->,18.435406,43.294960,-30.189320
0,1,0,0,0,1,0,-->,26.365067,10.621426,-28.467905
0,1,0,0,0,1,0.5,-->,18.978518,18.233816,-28.158920
0,1,0,0,0,1,1,-->,12.852565,26.739933,-30.344040
0,1,0,0,0.5,0,0,-->,64.205818,96.519890,43.821930
0,1,0,0,0.5,0,0.5,-->,43.818542,73.865540,23.301952
0,1,0,0,0.5,0,1,-->,26.974627,56.742516,4.211823
0,1,0,0,0.5,0.5,0,-->,44.248901,62.953648,23.646748
0,1,0,0,0.5,0.5,0.5,-->,29.980703,49.669453,10.258196
0,1,0,0,0.5,0.5,1,-->,18.661892,40.181362,-2.491693
0,1,0,0,0.5,1,0,-->,23.898125,19.731878,-0.307320
0,1,0,0,0.5,1,0.5,-->,16.364126,22.714003,-6.363564
0,1,0,0,0.5,1,1,-->,12.190135,24.245975,-9.192702
0,1,0,0,1,0,0,-->,63.485630,95.204185,88.965179
0,1,0,0,1,0,0.5,-->,44.053043,72.976418,55.460735
0,1,0,0,1,0,1,-->,28.615702,56.668949,28.844625
0,1,0,0,1,0.5,0,-->,43.847195,63.790436,55.105820
0,1,0,0,1,0.5,0.5,-->,30.390591,51.395580,31.904799
0,1,0,0,1,0.5,1,-->,19.871267,40.419273,13.768006
0,1,0,0,1,1,0,-->,23.937746,26.299643,20.779177
0,1,0,0,1,1,0.5,-->,17.910259,23.516247,10.386963
0,1,0,0,1,1,1,-->,12.890262,24.894569,1.731803
0,1,0,0.5,0,0,0,-->,42.249710,66.430229,-2.941643
0,1,0,0.5,0,0,0.5,-->,28.782812,52.118832,-11.193135
0,1,0,0.5,0,0,1,-->,17.107161,40.929512,-19.709064
0,1,0,0.5,0,0.5,0,-->,30.045330,40.387993,-9.522874
0,1,0,0.5,0,0.5,0.5,-->,20.917114,32.816673,-13.376878
0,1,0,0.5,0,0.5,1,-->,13.026712,29.814758,-18.172821
0,1,0,0.5,0,1,0,-->,17.403231,6.894950,-17.956089
0,1,0,0.5,0,1,0.5,-->,13.505965,14.136404,-17.273006
0,1,0,0.5,0,1,1,-->,11.869549,17.528528,-16.070379
0,1,0,0.5,0.5,0,0,-->,42.914490,62.303257,30.074800
0,1,0,0.5,0.5,0,0.5,-->,29.437660,48.775803,15.263363
0,1,0,0.5,0.5,0,1,-->,18.195028,38.103527,3.139217
0,1,0,0.5,0.5,0.5,0,-->,30.051678,38.946186,16.053659
0,1,0,0.5,0.5,0.5,0.5,-->,21.066141,36.795425,6.043690
0,1,0,0.5,0.5,0.5,1,-->,14.648214,25.742075,-1.966964
0,1,0,0.5,0.5,1,0,-->,16.039055,11.323689,0.449964
0,1,0,0.5,0.5,1,0.5,-->,12.124663,16.735207,-7.472064
0,1,0,0.5,0.5,1,1,-->,11.869549,16.874781,-7.657653
0,1,0,0.5,1,0,0,-->,42.972431,61.429138,53.597591
0,1,0,0.5,1,0,0.5,-->,29.819822,48.112827,30.920696
0,1,0,0.5,1,0,1,-->,19.184917,37.838924,12.584643
0,1,0,0.5,1,0.5,0,-->,29.895731,39.910419,31.051577
0,1,0,0.5,1,0.5,0.5,-->,24.715939,30.175177,22.120901
0,1,0,0.5,1,0.5,1,-->,15.956434,28.981052,7.018277
0,1,0,0.5,1,1,0,-->,17.258913,13.001207,9.263956
0,1,0,0.5,1,1,0.5,-->,14.669495,15.292241,4.799424
0,1,0,0.5,1,1,1,-->,11.869549,15.184829,-0.028065
0,1,0,1,0,0,0,-->,14.903058,15.995036,5.202141
0,1,0,1,0,0,0.5,-->,12.533031,15.163748,1.115856
0,1,0,1,0,0,1,-->,11.869549,15.723564,-1.222182
0,1,0,1,0,0.5,0,-->,11.869549,5.628326,-0.028065
0,1,0,1,0,0.5,0.5,-->,11.869549,4.000433,-0.028065
0,1,0,1,0,0.5,1,-->,11.869549,7.257268,-0.028065
0,1,0,1,0,1,0,-->,11.869549,2.254700,-2.056062
0,1,0,1,0,1,0.5,-->,11.869549,5.577759,-1.013626
0,1,0,1,0,1,1,-->,11.869549,9.277483,-0.758227
0,1,0,1,0.5,0,0,-->,20.209553,11.071094,14.351260
0,1,0,1,0.5,0,0.5,-->,12.363849,8.947767,0.824183
0,1,0,1,0.5,0,1,-->,11.869549,9.915423,-0.028065
0,1,0,1,0.5,0.5,0,-->,12.444184,1.555705,0.962678
0,1,0,1,0.5,0.5,0.5,-->,12.119638,7.939803,0.403105
0,1,0,1,0.5,0.5,1,-->,11.869549,7.550993,-1.200941
0,1,0,1,0.5,1,0,-->,11.869549,0.180832,-0.028065
0,1,0,1,0.5,1,0.5,-->,11.869549,1.524151,-1.503541
0,1,0,1,0.5,1,1,-->,11.869549,5.048766,-1.497424
0,1,0,1,1,0,0,-->,21.324177,12.235184,16.273029
0,1,0,1,1,0,0.5,-->,13.032734,10.018444,1.977437
0,1,0,1,1,0,1,-->,11.869549,16.140583,-0.028065
0,1,0,1,1,0.5,0,-->,13.068163,2.950489,2.038522
0,1,0,1,1,0.5,0.5,-->,14.444387,7.276328,4.411313
0,1,0,1,1,0.5,1,-->,11.869549,8.267133,-0.028065
0,1,0,1,1,1,0,-->,11.869549,0.133928,-0.028065
0,1,0,1,1,1,0.5,-->,11.869549,0.133928,-0.028065
0,1,0,1,1,1,1,-->,11.869549,0.562925,-2.366293
0,1,0.5,0,0,0,0,-->,65.782761,95.110435,30.830368
0,1,0.5,0,0,0,0.5,-->,44.734375,73.919235,12.302349
0,1,0.5,0,0,0,1,-->,27.018177,57.374481,-5.480005
0,1,0.5,0,0,0.5,0,-->,46.146843,59.133820,13.884295
0,1,0.5,0,0,0.5,0.5,-->,31.111193,48.027103,1.649134
0,1,0.5,0,0,0.5,1,-->,19.020304,39.993591,-9.530231
0,1,0.5,0,0,1,0,-->,27.034122,9.481229,-5.410507
0,1,0.5,0,0,1,0.5,-->,18.517044,16.240185,-10.344330
0,1,0.5,0,0,1,1,-->,12.986785,23.023155,-14.674630
0,1,0.5,0,0.5,0,0,-->,64.362190,95.021477,64.569870
0,1,0.5,0,0.5,0,0.5,-->,44.667393,73.820274,41.029644
0,1,0.5,0,0.5,0,1,-->,28.338373,57.068203,20.765711
0,1,0.5,0,0.5,0.5,0,-->,44.871243,62.497623,41.065529
0,1,0.5,0,0.5,0.5,0.5,-->,31.828451,56.476089,23.304111
0,1,0.5,0,0.5,0.5,1,-->,19.806049,40.271446,6.364970
0,1,0.5,0,0.5,1,0,-->,24.825089,22.623766,14.567590
0,1,0.5,0,0.5,1,0.5,-->,16.320791,26.701403,1.958498
0,1,0.5,0,0.5,1,1,-->,11.869549,16.748354,-21.414215
0,1,0.5,0,1,0,0,-->,63.652905,95.014931,89.253601
0,1,0.5,0,1,0,0.5,-->,44.908176,74.764717,56.935089
0,1,0.5,0,1,0,1,-->,30.527050,58.918583,32.140053
0,1,0.5,0,1,0.5,0,-->,44.488834,64.811394,56.212093
0,1,0.5,0,1,0.5,0.5,-->,34.325897,52.295994,38.689774
0,1,0.5,0,1,0.5,1,-->,17.953869,39.688362,10.462153
0,1,0.5,0,1,1,0,-->,25.974890,30.056257,24.291512
0,1,0.5,0,1,1,0.5,-->,15.582202,22.140432,6.373056
0,1,0.5,0,1,1,1,-->,11.869549,15.267147,-4.551160
0,1,0.5,0.5,0,0,0,-->,42.092628,61.249969,20.311165
0,1,0.5,0.5,0,0,0.5,-->,29.186232,48.922337,7.964927
0,1,0.5,0.5,0,0,1,-->,17.688513,38.704456,-3.205614
0,1,0.5,0.5,0,0.5,0,-->,30.181923,37.160843,9.072203
0,1,0.5,0.5,0,0.5,0.5,-->,22.456890,34.066624,3.890680
0,1,0.5,0.5,0,0.5,1,-->,15.138954,25.415262,-4.220798
0,1,0.5,0.5,0,1,0,-->,17.812693,4.947768,-3.039313
0,1,0.5,0.5,0,1,0.5,-->,12.363455,13.908934,-9.436969
0,1,0.5,0.5,0,1,1,-->,11.869549,16.214209,-8.513762
0,1,0.5,0.5,0.5,0,0,-->,42.917923,60.925907,42.677479
0,1,0.5,0.5,0.5,0,0.5,-->,28.566420,56.804283,24.624191
0,1,0.5,0.5,0.5,0,1,-->,19.141092,36.402618,9.655062
0,1,0.5,0.5,0.5,0.5,0,-->,30.835688,41.105381,27.819349
0,1,0.5,0.5,0.5,0.5,0.5,-->,20.707264,37.118011,14.991388
0,1,0.5,0.5,0.5,0.5,1,-->,13.819086,29.031149,-6.575289
0,1,0.5,0.5,0.5,1,0,-->,16.877024,13.170663,7.141284
0,1,0.5,0.5,0.5,1,0.5,-->,12.851395,13.620088,-7.573062
0,1,0.5,0.5,0.5,1,1,-->,11.869549,11.279353,-12.738976
0,1,0.5,0.5,1,0,0,-->,43.190208,61.594398,53.973057
0,1,0.5,0.5,1,0,0.5,-->,31.742800,50.709927,34.236172
0,1,0.5,0.5,1,0,1,-->,20.907257,35.337761,15.554184
0,1,0.5,0.5,1,0.5,0,-->,33.227829,38.342533,36.796551
0,1,0.5,0.5,1,0.5,0.5,-->,27.452820,36.390167,26.839655
0,1,0.5,0.5,1,0.5,1,-->,13.895173,28.356943,3.464388
0,1,0.5,0.5,1,1,0,-->,17.824253,15.391568,10.238665
0,1,0.5,0.5,1,1,0.5,-->,12.913624,13.998243,1.772065
0,1,0.5,0.5,1,1,1,-->,11.869549,8.950898,-3.645920
0,1,0.5,1,0,0,0,-->,15.821366,10.413531,6.785410
0,1,0.5,1,0,0,0.5,-->,11.869549,8.549275,-0.028065
0,1,0.5,1,0,0,1,-->,11.869549,9.271799,-0.028065
0,1,0.5,1,0,0.5,0,-->,11.869549,2.849551,-0.028065
0,1,0.5,1,0,0.5,0.5,-->,11.968490,8.495378,0.142515
0,1,0.5,1,0,0.5,1,-->,11.869549,7.979443,-1.155898
0,1,0.5,1,0,1,0,-->,11.869549,0.217903,-0.028065
0,1,0.5,1,0,1,0.5,-->,11.869549,1.820247,-1.591355
0,1,0.5,1,0,1,1,-->,11.869549,5.429156,-1.291422
0,1,0.5,1,0.5,0,0,-->,19.678421,10.314508,13.435509
0,1,0.5,1,0.5,0,0.5,-->,13.066545,11.607183,2.035726
0,1,0.5,1,0.5,0,1,-->,11.869549,10.336547,-0.084424
0,1,0.5,1,0.5,0.5,0,-->,12.690987,8.784269,1.388195
0,1,0.5,1,0.5,0.5,0.5,-->,12.094704,9.062247,0.360137
0,1,0.5,1,0.5,0.5,1,-->,11.869549,7.572788,-1.587099
0,1,0.5,1,0.5,1,0,-->,11.869549,1.363131,-0.935707
0,1,0.5,1,0.5,1,0.5,-->,11.869549,1.406008,-1.949151
0,1,0.5,1,0.5,1,1,-->,11.869549,4.752960,-1.534001
0,1,0.5,1,1,0,0,-->,21.409809,13.507994,16.420660
0,1,0.5,1,1,0,0.5,-->,16.309681,10.509954,7.627338
0,1,0.5,1,1,0,1,-->,11.869549,10.972299,-0.028065
0,1,0.5,1,1,0.5,0,-->,15.928396,7.984595,6.969958
0,1,0.5,1,1,0.5,0.5,-->,15.019081,7.828150,5.402163
0,1,0.5,1,1,0.5,1,-->,11.869549,7.743019,-0.028065
0,1,0.5,1,1,1,0,-->,11.869549,0.133928,-0.028065
0,1,0.5,1,1,1,0.5,-->,11.869549,0.133928,-0.028065
0,1,0.5,1,1,1,1,-->,11.869549,0.562925,-2.356497
0,1,1,0,0,0,0,-->,65.577774,92.565971,66.941772
0,1,1,0,0,0,0.5,-->,45.211155,72.102631,40.688969
0,1,1,0,0,0,1,-->,29.043686,57.058491,19.061502
0,1,1,0,0,0.5,0,-->,46.543953,57.491669,41.126068
0,1,1,0,0,0.5,0.5,-->,31.824038,48.812218,24.385214
0,1,1,0,0,0.5,1,-->,20.528063,39.734688,8.517311
0,1,1,0,0,1,0,-->,28.601372,11.645851,15.815945
0,1,1,0,0,1,0.5,-->,20.339714,16.509954,5.787280
0,1,1,0,0,1,1,-->,14.084614,22.279594,-1.134642
0,1,1,0,0.5,0,0,-->,64.513924,94.320526,84.607880
0,1,1,0,0.5,0,0.5,-->,45.081432,75.994637,57.233814
0,1,1,0,0.5,0,1,-->,30.836296,59.404362,32.673222
0,1,1,0,0.5,0.5,0,-->,45.342876,63.548359,56.933704
0,1,1,0,0.5,0.5,0.5,-->,32.474621,53.134228,35.497917
0,1,1,0,0.5,0.5,1,-->,18.285351,39.836189,5.270537
0,1,1,0,0.5,1,0,-->,27.508316,26.300343,26.935318
0,1,1,0,0.5,1,0.5,-->,18.231995,13.819182,4.056396
0,1,1,0,0.5,1,1,-->,11.869549,15.334069,-8.295783
0,1,1,0,1,0,0,-->,63.908531,94.946442,89.694313
0,1,1,0,1,0,0.5,-->,45.929646,74.980804,58.696232
0,1,1,0,1,0,1,-->,32.575375,61.349037,35.671612
0,1,1,0,1,0.5,0,-->,45.361862,65.032364,57.717300
0,1,1,0,1,0.5,0.5,-->,38.351467,57.594826,45.630405
0,1,1,0,1,0.5,1,-->,19.994577,42.426861,13.980628
0,1,1,0,1,1,0,-->,28.252081,33.577103,28.217674
0,1,1,0,1,1,0.5,-->,17.981413,25.500879,10.509636
0,1,1,0,1,1,1,-->,11.869549,6.023277,-11.411806
0,1,1,0.5,0,0,0,-->,42.026058,58.046497,41.711464
0,1,1,0.5,0,0,0.5,-->,29.300323,48.243313,25.280066
0,1,1,0.5,0,0,1,-->,19.210978,38.896469,11.832512
0,1,1,0.5,0,0.5,0,-->,30.505640,35.133667,25.999458
0,1,1,0.5,0,0.5,0.5,-->,23.242342,32.463413,17.468536
0,1,1,0.5,0,0.5,1,-->,16.857613,24.180359,8.572043
0,1,1,0.5,0,1,0,-->,19.285219,5.420447,10.178203
0,1,1,0.5,0,1,0.5,-->,12.853022,14.985841,-0.236127
0,1,1,0.5,0,1,1,-->,12.058234,14.804515,-1.911267
0,1,1,0.5,0.5,0,0,-->,43.081543,59.965137,53.785740
0,1,1,0.5,0.5,0,0.5,-->,29.244350,55.713043,29.928493
0,1,1,0.5,0.5,0,1,-->,20.560558,36.426464,14.956430
0,1,1,0.5,0.5,0.5,0,-->,31.567722,40.026787,33.934299
0,1,1,0.5,0.5,0.5,0.5,-->,26.123873,35.873516,23.299597
0,1,1,0.5,0.5,0.5,1,-->,13.984331,28.492020,2.892792
0,1,1,0.5,0.5,1,0,-->,18.393478,13.187184,11.220076
0,1,1,0.5,0.5,1,0.5,-->,13.733294,9.806871,1.500760
0,1,1,0.5,0.5,1,1,-->,11.869549,9.092358,-5.666036
0,1,1,0.5,1,0,0,-->,43.361477,61.886753,54.268391
0,1,1,0.5,1,0,0.5,-->,32.642143,51.950047,35.786747
0,1,1,0.5,1,0,1,-->,23.842079,40.966095,20.614220
0,1,1,0.5,1,0.5,0,-->,34.209866,39.525608,38.489723
0,1,1,0.5,1,0.5,0.5,-->,28.797583,38.481453,29.158199
0,1,1,0.5,1,0.5,1,-->,15.650542,27.852087,6.490911
0,1,1,0.5,1,1,0,-->,20.982613,21.780712,15.684107
0,1,1,0.5,1,1,0.5,-->,14.138383,17.898720,3.883734
0,1,1,0.5,1,1,1,-->,11.869549,4.205044,-8.074119
0,1,1,1,0,0,0,-->,16.334581,6.161210,7.670276
0,1,1,1,0,0,0.5,-->,11.869549,6.932341,-0.028065
0,1,1,1,0,0,1,-->,11.869549,15.858350,-0.028065
0,1,1,1,0,0.5,0,-->,11.869549,0.530687,-0.028065
0,1,1,1,0,0.5,0.5,-->,12.022522,4.331304,0.235701
0,1,1,1,0,0.5,1,-->,11.869549,8.677799,-0.028065
0,1,1,1,0,1,0,-->,11.869549,0.133928,-0.028065
0,1,1,1,0,1,0.5,-->,11.869549,0.599904,-0.028065
0,1,1,1,0,1,1,-->,11.869549,1.496124,-1.886188
0,1,1,1,0.5,0,0,-->,20.745605,10.256463,15.275492
0,1,1,1,0.5,0,0.5,-->,13.852015,7.385839,3.389988
0,1,1,1,0.5,0,1,-->,11.869549,10.946293,-0.028065
0,1,1,1,0.5,0.5,0,-->,13.364511,4.565827,2.549458
0,1,1,1,0.5,0.5,0.5,-->,12.285759,4.403911,0.689549
0,1,1,1,0.5,0.5,1,-->,11.869549,7.716710,-0.028065
0,1,1,1,0.5,1,0,-->,11.869549,0.283670,-0.028065
0,1,1,1,0.5,1,0.5,-->,11.869549,0.248499,-0.028065
0,1,1,1,0.5,1,1,-->,11.869549,1.067431,-2.094714
0,1,1,1,1,0,0,-->,21.612413,14.991449,16.769997
0,1,1,1,1,0,0.5,-->,16.639326,11.953847,8.195697
0,1,1,1,1,0,1,-->,11.869549,5.320284,-0.028065
0,1,1,1,1,0.5,0,-->,16.236837,9.734827,7.501762
0,1,1,1,1,0.5,0.5,-->,15.267370,9.468658,5.830247
0,1,1,1,1,0.5,1,-->,11.869549,2.983410,-0.969951
0,1,1,1,1,1,0,-->,11.869549,0.835887,-0.472170
0,1,1,1,1,1,0.5,-->,11.869549,0.714156,-1.310185
0,1,1,1,1,1,1,-->,11.869549,0.562925,-2.350615
0.5,0,0,0,0,0,0,-->,102.265640,-24.936079,-33.255859
0.5,0,0,0,0,0,0.5,-->,64.444885,5.588413,-49.993370
0.5,0,0,0,0,0,1,-->,25.767759,56.350376,-78.656517
0.5,0,0,0,0,0.5,0,-->,85.559410,-58.557510,-21.927011
0.5,0,0,0,0,0.5,0.5,-->,54.012386,-20.810783,-37.788197
0.5,0,0,0,0,0.5,1,-->,23.671520,30.278683,-61.070347
0.5,0,0,0,0,1,0,-->,71.170624,-96.123634,-11.623599
0.5,0,0,0,0,1,0.5,-->,45.503960,-47.143066,-26.961058
0.5,0,0,0,0,1,1,-->,22.707838,7.847210,-46.266834
0.5,0,0,0,0.5,0,0,-->,77.704010,15.336015,9.880100
0.5,0,0,0,0.5,0,0.5,-->,49.308224,23.858305,-9.390459
0.5,0,0,0,0.5,0,1,-->,21.924131,39.768295,-34.012096
0.5,0,0,0,0.5,0.5,0,-->,62.251930,-14.478888,7.591590
0.5,0,0,0,0.5,0.5,0.5,-->,39.510075,2.202461,-8.051646
0.5,0,0,0,0.5,0.5,1,-->,18.541067,22.829683,-27.003214
0.5,0,0,0,0.5,1,0,-->,48.439205,-51.430923,4.605497
0.5,0,0,0,0.5,1,0.5,-->,30.543495,-21.219612,-8.648230
0.5,0,0,0,0.5,1,1,-->,15.581992,9.228466,-22.637970
0.5,0,0,0,1,0,0,-->,62.714325,46.926273,76.029076
0.5,0,0,0,1,0,0.5,-->,40.869942,38.758629,43.102097
0.5,0,0,0,1,0,1,-->,20.884054,34.178123,12.620650
0.5,0,0,0,1,0.5,0,-->,46.722088,22.655426,52.218204
0.5,0,0,0,1,0.5,0.5,-->,30.142862,21.936140,27.143911
0.5,0,0,0,1,0.5,1,-->,15.339571,22.726452,5.954759
0.5,0,0,0,1,1,0,-->,32.038017,-7.975513,31.571510
0.5,0,0,0,1,1,0.5,-->,20.290876,2.096613,13.546660
0.5,0,0,0,1,1,1,-->,11.869549,7.276921,-0.289355
0.5,0,0,0.5,0,0,0,-->,67.410759,-17.271198,-20.514559
0.5,0,0,0.5,0,0,0.5,-->,42.439491,4.750817,-32.535618
0.5,0,0,0.5,0,0,1,-->,17.685722,36.724140,-50.396946
0.5,0,0,0.5,0,0.5,0,-->,56.570183,-39.952904,-13.565378
0.5,0,0,0.5,0,0.5,0.5,-->,36.155811,-11.604767,-24.034227
0.5,0,0,0.5,0,0.5,1,-->,16.321323,21.607685,-38.711517
0.5,0,0,0.5,0,1,0,-->,46.713306,-65.289558,-7.561108
0.5,0,0,0.5,0,1,0.5,-->,30.115002,-27.912777,-17.498569
0.5,0,0,0.5,0,1,1,-->,15.453039,9.431330,-29.172668
0.5,0,0,0.5,0.5,0,0,-->,52.191742,8.426846,9.948512
0.5,0,0,0.5,0.5,0,0.5,-->,33.505779,15.847741,-3.619344
0.5,0,0,0.5,0.5,0,1,-->,15.337398,26.893353,-19.748627
0.5,0,0,0.5,0.5,0.5,0,-->,42.030159,-11.112512,7.864309
0.5,0,0,0.5,0.5,0.5,0.5,-->,30.057457,0.187717,-2.129056
0.5,0,0,0.5,0.5,0.5,1,-->,13.228094,19.879311,-17.387646
0.5,0,0,0.5,0.5,1,0,-->,32.084755,-35.400734,4.887883
0.5,0,0,0.5,0.5,1,0.5,-->,23.526613,-17.940115,-1.040559
0.5,0,0,0.5,0.5,1,1,-->,12.775927,9.438534,-11.884904
0.5,0,0,0.5,1,0,0,-->,42.424721,28.053219,52.530640
0.5,0,0,0.5,1,0,0.5,-->,27.947729,25.290174,27.692951
0.5,0,0,0.5,1,0,1,-->,14.292563,24.341805,4.149567
0.5,0,0,0.5,1,0.5,0,-->,32.125095,11.899266,34.895298
0.5,0,0,0.5,1,0.5,0.5,-->,23.285255,14.287925,19.654179
0.5,0,0,0.5,1,0.5,1,-->,13.935839,10.953983,3.534502
0.5,0,0,0.5,1,1,0,-->,21.511002,-7.308208,16.595131
0.5,0,0,0.5,1,1,0.5,-->,13.317387,6.247313,2.468218
0.5,0,0,0.5,1,1,1,-->,11.869549,7.410172,-0.028065
0.5,0,0,1,0,0,0,-->,16.547426,-3.971053,-4.816812
0.5,0,0,1,0,0,0.5,-->,12.586535,7.745269,-7.156080
0.5,0,0,1,0,0,1,-->,11.869549,13.353190,-6.850895
0.5,0,0,1,0,0.5,0,-->,15.175596,-10.717850,-2.769504
0.5,0,0,1,0,0.5,0.5,-->,11.869549,1.323355,-4.532078
0.5,0,0,1,0,0.5,1,-->,11.869549,6.890162,-1.837391
0.5,0,0,1,0,1,0,-->,13.518955,-6.975597,-1.699900
0.5,0,0,1,0,1,0.5,-->,11.869549,3.768037,-2.962648
0.5,0,0,1,0,1,1,-->,11.869549,8.262664,-1.130645
0.5,0,0,1,0.5,0,0,-->,14.423065,0.281588,4.374546
0.5,0,0,1,0.5,0,0.5,-->,11.869549,5.175588,-0.028065
0.5,0,0,1,0.5,0,1,-->,11.869549,7.603886,-0.028065
0.5,0,0,1,0.5,0.5,0,-->,11.869549,0.133928,-0.028065
0.5,0,0,1,0.5,0.5,0.5,-->,13.021776,-0.147896,-0.656286
0.5,0,0,1,0.5,0.5,1,-->,11.869549,7.035816,-3.084979
0.5,0,0,1,0.5,1,0,-->,11.869549,0.133928,-0.028065
0.5,0,0,1,0.5,1,0.5,-->,11.887821,0.055150,-0.684047
0.5,0,0,1,0.5,1,1,-->,11.869549,4.744266,-1.990979
0.5,0,0,1,1,0,0,-->,17.025845,-0.633418,8.862089
0.5,0,0,1,1,0,0.5,-->,12.023860,2.315466,0.237981
0.5,0,0,1,1,0,1,-->,11.869549,7.722835,-0.028065
0.5,0,0,1,1,0.5,0,-->,12.308396,-1.757664,0.728565
0.5,0,0,1,1,0.5,0.5,-->,14.508669,1.856998,4.522130
0.5,0,0,1,1,0.5,1,-->,11.869549,6.355562,-0.028065
0.5,0,0,1,1,1,0,-->,11.869549,0.133928,-0.028065
0.5,0,0,1,1,1,0.5,-->,11.869549,0.133928,-0.028065
0.5,0,0,1,1,1,1,-->,11.869549,3.834199,-0.028065
0.5,0,0.5,0,0,0,0,-->,96.456161,-35.742138,22.030708
0.5,0,0.5,0,0,0,0.5,-->,61.339943,-8.331478,-5.184731
0.5,0,0.5,0,0,0,1,-->,25.849453,32.717545,-41.108627
0.5,0,0.5,0,0,0.5,0,-->,81.471840,-65.976624,21.911638
0.5,0,0.5,0,0,0.5,0.5,-->,51.925110,-30.832525,-2.126966
0.5,0,0.5,0,0,0.5,1,-->,23.384895,11.746485,-30.993013
0.5,0,0.5,0,0,1,0,-->,69.234390,-99.002602,21.333202
0.5,0,0.5,0,0,1,0.5,-->,44.459450,-55.258362,0.680657
0.5,0,0.5,0,0,1,1,-->,21.823139,-6.508230,-23.028057
0.5,0,0.5,0,0.5,0,0,-->,76.069603,11.283913,46.768795
0.5,0,0.5,0,0.5,0,0.5,-->,48.913891,19.446346,20.779678
0.5,0,0.5,0,0.5,0,1,-->,23.363388,31.198339,-8.255406
0.5,0,0.5,0,0.5,0.5,0,-->,61.517853,-16.720348,37.330753
0.5,0,0.5,0,0.5,0.5,0.5,-->,45.161774,-5.210813,21.867651
0.5,0,0.5,0,0.5,0.5,1,-->,18.383289,20.117983,-9.405149
0.5,0,0.5,0,0.5,1,0,-->,49.049862,-51.435097,28.142923
0.5,0,0.5,0,0.5,1,0.5,-->,35.785046,-34.520523,17.575312
0.5,0,0.5,0,0.5,1,1,-->,16.664165,2.897930,-6.517494
0.5,0,0.5,0,1,0,0,-->,63.833439,44.207397,86.372398
0.5,0,0.5,0,1,0,0.5,-->,42.451557,37.688148,52.237797
0.5,0,0.5,0,1,0,1,-->,23.017069,34.355881,19.191805
0.5,0,0.5,0,1,0.5,0,-->,48.831924,20.383558,61.870022
0.5,0,0.5,0,1,0.5,0.5,-->,35.853466,19.448246,41.323536
0.5,0,0.5,0,1,0.5,1,-->,18.823645,17.862028,11.961765
0.5,0,0.5,0,1,1,0,-->,35.080692,-9.084986,39.991142
0.5,0,0.5,0,1,1,0.5,-->,22.505665,0.682284,18.310085
0.5,0,0.5,0,1,1,1,-->,11.869549,6.742959,-1.333721
0.5,0,0.5,0.5,0,0,0,-->,63.882492,-24.646883,14.602670
0.5,0,0.5,0.5,0,0,0.5,-->,40.565079,-3.840849,-3.732464
0.5,0,0.5,0.5,0,0,1,-->,17.619810,22.452789,-25.399927
0.5,0,0.5,0.5,0,0.5,0,-->,54.211128,-45.007938,14.814242
0.5,0,0.5,0.5,0,0.5,0.5,-->,36.725330,-18.718077,0.461622
0.5,0,0.5,0.5,0,0.5,1,-->,15.266427,12.508237,-19.269943
0.5,0,0.5,0.5,0,1,0,-->,45.662441,-67.969070,15.315755
0.5,0,0.5,0.5,0,1,0.5,-->,29.863522,-36.243080,2.451955
0.5,0,0.5,0.5,0,1,1,-->,14.662957,2.601697,-12.102837
0.5,0,0.5,0.5,0.5,0,0,-->,51.113380,6.057262,32.622383
0.5,0,0.5,0.5,0.5,0,0.5,-->,36.611378,12.583565,19.013670
0.5,0,0.5,0.5,0.5,0,1,-->,15.634103,24.928068,-6.181364
0.5,0,0.5,0.5,0.5,0.5,0,-->,45.208805,-16.344488,31.067110
0.5,0,0.5,0.5,0.5,0.5,0.5,-->,30.457571,-3.087996,15.985659
0.5,0,0.5,0.5,0.5,0.5,1,-->,12.871420,15.329039,-5.778867
0.5,0,0.5,0.5,0.5,1,0,-->,35.858707,-43.050140,25.122847
0.5,0,0.5,0.5,0.5,1,0.5,-->,23.498220,-21.121243,11.715949
0.5,0,0.5,0.5,0.5,1,1,-->,12.232792,5.394608,-12.691395
0.5,0,0.5,0.5,1,0,0,-->,43.257736,26.734644,54.089527
0.5,0,0.5,0.5,1,0,0.5,-->,30.492329,28.391476,32.080181
0.5,0,0.5,0.5,1,0,1,-->,17.107931,18.307121,9.003639
0.5,0,0.5,0.5,1,0.5,0,-->,36.272751,7.927629,42.046440
0.5,0,0.5,0.5,1,0.5,0.5,-->,24.303335,13.046622,21.409502
0.5,0,0.5,0.5,1,0.5,1,-->,13.619137,18.343721,2.988486
0.5,0,0.5,0.5,1,1,0,-->,22.762356,-8.889791,18.752640
0.5,0,0.5,0.5,1,1,0.5,-->,17.804462,-1.337240,10.204557
0.5,0,0.5,0.5,1,1,1,-->,11.869549,5.524531,-0.836837
0.5,0,0.5,1,0,0,0,-->,16.435488,-7.948246,1.886834
0.5,0,0.5,1,0,0,0.5,-->,11.869549,2.928480,-1.642796
0.5,0,0.5,1,0,0,1,-->,11.869549,7.798907,-0.028065
0.5,0,0.5,1,0,0.5,0,-->,14.908077,-12.963187,3.352978
0.5,0,0.5,1,0,0.5,0.5,-->,13.741344,-1.774383,-0.801658
0.5,0,0.5,1,0,0.5,1,-->,11.869549,7.007166,-3.193311
0.5,0,0.5,1,0,1,0,-->,13.923608,-8.719788,3.513421
0.5,0,0.5,1,0,1,0.5,-->,12.043553,-0.616107,-0.140782
0.5,0,0.5,1,0,1,1,-->,11.869549,4.562985,-1.886713
0.5,0,0.5,1,0.5,0,0,-->,13.361855,0.305602,2.544883
0.5,0,0.5,1,0.5,0,0.5,-->,13.593676,0.861877,1.156392
0.5,0,0.5,1,0.5,0,1,-->,11.869549,7.603962,-2.668544
0.5,0,0.5,1,0.5,0.5,0,-->,14.164330,-2.467481,1.812769
0.5,0,0.5,1,0.5,0.5,0.5,-->,13.715631,-0.392983,-0.604130
0.5,0,0.5,1,0.5,0.5,1,-->,11.869549,7.002941,-3.547581
0.5,0,0.5,1,0.5,1,0,-->,11.999695,-0.427059,0.196335
0.5,0,0.5,1,0.5,1,0.5,-->,11.890775,0.042428,-0.625196
0.5,0,0.5,1,0.5,1,1,-->,11.869549,4.452639,-2.034722
0.5,0,0.5,1,1,0,0,-->,16.416483,-0.316926,7.811476
0.5,0,0.5,1,1,0,0.5,-->,15.436062,3.013747,6.121099
0.5,0,0.5,1,1,0,1,-->,11.869549,6.847103,-0.028065
0.5,0,0.5,1,1,0.5,0,-->,15.800645,1.046365,6.749677
0.5,0,0.5,1,1,0.5,0.5,-->,15.328079,2.765271,5.934939
0.5,0,0.5,1,1,0.5,1,-->,11.869549,6.259883,-0.028065
0.5,0,0.5,1,1,1,0,-->,11.869549,0.133928,-0.028065
0.5,0,0.5,1,1,1,0.5,-->,11.869549,0.133928,-0.028065
0.5,0,0.5,1,1,1,1,-->,11.869549,3.834336,-0.028065
0.5,0,1,0,0,0,0,-->,92.380943,-39.546341,82.253021
0.5,0,1,0,0,0,0.5,-->,59.366489,-14.680360,42.972481
0.5,0,1,0,0,0,1,-->,27.449080,17.421587,-0.886819
0.5,0,1,0,0,0.5,0,-->,79.027588,-67.465813,66.386871
0.5,0,1,0,0,0.5,0.5,-->,50.677307,-36.492977,34.589233
0.5,0,1,0,0,0.5,1,-->,23.890785,-1.213199,-0.387891
0.5,0,1,0,0,1,0,-->,68.491463,-97.509262,53.343750
0.5,0,1,0,0,1,0.5,-->,43.874619,-59.307652,27.427666
0.5,0,1,0,0,1,1,-->,23.050587,-17.462669,0.621365
0.5,0,1,0,0.5,0,0,-->,75.145668,10.160389,84.645515
0.5,0,1,0,0.5,0,0.5,-->,48.942993,17.958817,50.718029
0.5,0,1,0,0.5,0,1,-->,25.383877,28.685839,16.796398
0.5,0,1,0,0.5,0.5,0,-->,61.651684,-16.960443,65.917686
0.5,0,1,0,0.5,0.5,0.5,-->,44.641720,-7.111250,46.492062
0.5,0,1,0,0.5,0.5,1,-->,20.751921,10.934863,11.593611
0.5,0,1,0,0.5,1,0,-->,50.288643,-49.200985,50.385853
0.5,0,1,0,0.5,1,0.5,-->,36.644337,-33.289169,32.145340
0.5,0,1,0,0.5,1,1,-->,13.757517,-8.003876,-0.545423
0.5,0,1,0,1,0,0,-->,65.156525,41.506321,91.846031
0.5,0,1,0,1,0,0.5,-->,43.604080,36.889645,54.686642
0.5,0,1,0,1,0,1,-->,25.797155,34.726452,23.985065
0.5,0,1,0,1,0.5,0,-->,50.575233,17.761850,66.705872
0.5,0,1,0,1,0.5,0.5,-->,37.854225,18.212887,44.773113
0.5,0,1,0,1,0.5,1,-->,20.384708,31.020008,14.653253
0.5,0,1,0,1,1,0,-->,38.953598,-10.343554,46.668602
0.5,0,1,0,1,1,0.5,-->,29.289776,-0.444888,30.006815
0.5,0,1,0,1,1,1,-->,11.869549,10.212446,-0.028065
0.5,0,1,0.5,0,0,0,-->,60.944408,-27.940783,55.190800
0.5,0,1,0.5,0,0,0.5,-->,39.053940,-8.573655,28.020721
0.5,0,1,0.5,0,0,1,-->,18.144846,13.253742,-0.400035
0.5,0,1,0.5,0,0.5,0,-->,52.422543,-46.880905,44.792568
0.5,0,1,0.5,0,0.5,0.5,-->,35.487011,-21.889433,26.722666
0.5,0,1,0.5,0,0.5,1,-->,17.169882,1.058418,2.956416
0.5,0,1,0.5,0,1,0,-->,45.366161,-67.543182,37.022545
0.5,0,1,0.5,0,1,0.5,-->,30.370724,-36.513016,18.946840
0.5,0,1,0.5,0,1,1,-->,15.755645,-7.748514,2.515974
0.5,0,1,0.5,0.5,0,0,-->,50.376396,5.260111,56.621910
0.5,0,1,0.5,0.5,0,0.5,-->,35.936180,10.717576,38.565689
0.5,0,1,0.5,0.5,0,1,-->,18.049036,15.736057,10.626213
0.5,0,1,0.5,0.5,0.5,0,-->,44.627346,-17.887587,51.040100
0.5,0,1,0.5,0.5,0.5,0.5,-->,29.769838,-4.754867,30.834501
0.5,0,1,0.5,0.5,0.5,1,-->,15.295913,13.036743,5.202658
0.5,0,1,0.5,0.5,1,0,-->,37.114471,-41.851639,36.828846
0.5,0,1,0.5,0.5,1,0.5,-->,30.396637,-31.809643,25.409000
0.5,0,1,0.5,0.5,1,1,-->,12.129482,-0.986488,-0.448232
0.5,0,1,0.5,1,0,0,-->,44.085915,25.491898,55.517399
0.5,0,1,0.5,1,0,0.5,-->,32.485706,28.038977,35.517052
0.5,0,1,0.5,1,0,1,-->,20.369783,20.173353,14.627521
0.5,0,1,0.5,1,0.5,0,-->,38.457726,7.162714,45.813618
0.5,0,1,0.5,1,0.5,0.5,-->,33.289749,18.656610,36.903309
0.5,0,1,0.5,1,0.5,1,-->,15.724510,22.084408,6.618416
0.5,0,1,0.5,1,1,0,-->,26.929054,-8.355000,25.936596
0.5,0,1,0.5,1,1,0.5,-->,21.657743,-1.330081,16.848137
0.5,0,1,0.5,1,1,1,-->,11.869549,5.463369,-0.028065
0.5,0,1,1,0,0,0,-->,16.436863,-11.243057,7.846632
0.5,0,1,1,0,0,0.5,-->,11.869549,0.594843,-1.379919
0.5,0,1,1,0,0,1,-->,11.869549,7.547071,-0.028065
0.5,0,1,1,0,0.5,0,-->,15.903219,-16.435266,6.926565
0.5,0,1,1,0,0.5,0.5,-->,13.540136,-4.983516,2.852271
0.5,0,1,1,0,0.5,1,-->,11.869549,5.815291,-0.028065
0.5,0,1,1,0,1,0,-->,15.050806,-13.578397,5.456864
0.5,0,1,1,0,1,0.5,-->,12.707426,-3.477619,1.416556
0.5,0,1,1,0,1,1,-->,11.869549,3.083755,-0.028065
0.5,0,1,1,0.5,0,0,-->,13.874795,-0.649955,3.429248
0.5,0,1,1,0.5,0,0.5,-->,13.331768,-2.216429,2.492993
0.5,0,1,1,0.5,0,1,-->,11.869549,6.372433,-0.028065
0.5,0,1,1,0.5,0.5,0,-->,13.936834,-5.245732,3.536219
0.5,0,1,1,0.5,0.5,0.5,-->,13.258700,-3.495364,2.367022
0.5,0,1,1,0.5,0.5,1,-->,11.869549,5.753491,-0.028065
0.5,0,1,1,0.5,1,0,-->,12.837049,-4.036349,1.640060
0.5,0,1,1,0.5,1,0.5,-->,12.127793,-0.979208,0.417195
0.5,0,1,1,0.5,1,1,-->,11.869549,3.214696,-0.168323
0.5,0,1,1,1,0,0,-->,16.848925,2.929757,8.557088
0.5,0,1,1,1,0,0.5,-->,16.120092,4.742290,7.300465
0.5,0,1,1,1,0,1,-->,11.869549,7.389349,-0.028065
0.5,0,1,1,1,0.5,0,-->,16.430817,3.125005,7.836175
0.5,0,1,1,1,0.5,0.5,-->,15.886301,4.418927,6.897382
0.5,0,1,1,1,0.5,1,-->,11.869549,6.821873,-0.028065
0.5,0,1,1,1,1,0,-->,11.869549,0.133928,-0.028065
0.5,0,1,1,1,1,0.5,-->,11.869549,0.133928,-0.028065
0.5,0,1,1,1,1,1,-->,11.869549,0.174920,-1.956355
0.5,0.5,0,0,0,0,0,-->,73.901192,16.853273,-34.949718
0.5,0.5,0,0,0,0,0.5,-->,46.892315,30.043552,-45.802734
0.5,0.5,0,0,0,0,1,-->,22.075392,53.767155,-62.553566
0.5,0.5,0,0,0,0.5,0,-->,60.486294,-16.965748,-27.643145
0.5,0.5,0,0,0,0.5,0.5,-->,38.879757,5.116159,-36.958939
0.5,0.5,0,0,0,0.5,1,-->,19.143322,33.418423,-50.605896
0.5,0.5,0,0,0,1,0,-->,48.839977,-56.318512,-21.974586
0.5,0.5,0,0,0,1,0.5,-->,31.417147,-20.792301,-30.748838
0.5,0.5,0,0,0,1,1,-->,16.969652,16.471333,-41.366390
0.5,0.5,0,0,0.5,0,0,-->,59.518456,39.910378,6.999384
0.5,0.5,0,0,0.5,0,0.5,-->,38.663181,38.961735,-7.027966
0.5,0.5,0,0,0.5,0,1,-->,20.117781,41.072231,-24.002697
0.5,0.5,0,0,0.5,0.5,0,-->,46.068707,10.773083,2.768691
0.5,0.5,0,0,0.5,0.5,0.5,-->,33.324940,20.271509,-8.416153
0.5,0.5,0,0,0.5,0.5,1,-->,14.869825,30.907625,-24.493082
0.5,0.5,0,0,0.5,1,0,-->,33.512951,-26.087948,-4.156042
0.5,0.5,0,0,0.5,1,0.5,-->,24.483231,-9.199412,-9.081497
0.5,0.5,0,0,0.5,1,1,-->,13.195033,15.844899,-19.522114
0.5,0.5,0,0,1,0,0,-->,51.842339,55.944527,60.899780
0.5,0.5,0,0,1,0,0.5,-->,34.610664,45.773460,34.276844
0.5,0.5,0,0,1,0,1,-->,19.848827,38.011269,12.677221
0.5,0.5,0,0,1,0.5,0,-->,37.666828,32.591194,39.240852
0.5,0.5,0,0,1,0.5,0.5,-->,27.145544,32.589050,25.436647
0.5,0.5,0,0,1,0.5,1,-->,15.872441,21.614677,6.631868
0.5,0.5,0,0,1,1,0,-->,23.548082,2.507843,19.142742
0.5,0.5,0,0,1,1,0.5,-->,14.155957,16.568335,3.019310
0.5,0.5,0,0,1,1,1,-->,11.869549,11.476942,-4.578146
0.5,0.5,0,0.5,0,0,0,-->,50.145180,10.174995,-21.689913
0.5,0.5,0,0.5,0,0,0.5,-->,32.434521,19.866117,-28.445045
0.5,0.5,0,0.5,0,0,1,-->,15.290242,35.513100,-39.527134
0.5,0.5,0,0.5,0,0.5,0,-->,40.966812,-11.783244,-16.950077
0.5,0.5,0,0.5,0,0.5,0.5,-->,27.157188,4.495987,-24.423159
0.5,0.5,0,0.5,0,0.5,1,-->,12.914063,22.003792,-31.310745
0.5,0.5,0,0.5,0,1,0,-->,31.697105,-37.262768,-14.708714
0.5,0.5,0,0.5,0,1,0.5,-->,20.950384,-13.832451,-18.833195
0.5,0.5,0,0.5,0,1,1,-->,12.493415,11.930319,-21.397078
0.5,0.5,0,0.5,0.5,0,0,-->,41.457584,23.780317,8.817982
0.5,0.5,0,0.5,0.5,0,0.5,-->,28.163887,30.140614,-2.699292
0.5,0.5,0,0.5,0.5,0,1,-->,13.442318,30.744843,-15.262915
0.5,0.5,0,0.5,0.5,0.5,0,-->,34.637440,5.458962,6.268410
0.5,0.5,0,0.5,0.5,0.5,0.5,-->,22.450899,13.507888,-3.300161
0.5,0.5,0,0.5,0.5,0.5,1,-->,12.112437,18.858547,-12.726163
0.5,0.5,0,0.5,0.5,1,0,-->,25.901253,-21.557201,3.906076
0.5,0.5,0,0.5,0.5,1,0.5,-->,16.826054,-6.608605,-3.656597
0.5,0.5,0,0.5,0.5,1,1,-->,11.924888,10.372965,-17.176096
0.5,0.5,0,0.5,1,0,0,-->,35.799541,34.248665,41.230545
0.5,0.5,0,0.5,1,0,0.5,-->,24.253601,36.481335,21.323780
0.5,0.5,0,0.5,1,0,1,-->,15.540479,18.813011,6.301148
0.5,0.5,0,0.5,1,0.5,0,-->,28.454653,19.488979,28.566935
0.5,0.5,0,0.5,1,0.5,0.5,-->,18.995806,19.569216,12.258606
0.5,0.5,0,0.5,1,0.5,1,-->,13.002440,21.086763,1.925197
0.5,0.5,0,0.5,1,1,0,-->,15.395808,5.299568,6.051684
0.5,0.5,0,0.5,1,1,0.5,-->,15.262872,5.532252,5.822511
0.5,0.5,0,0.5,1,1,1,-->,11.869549,8.240686,-2.743058
0.5,0.5,0,1,0,0,0,-->,14.613739,5.700599,-1.774452
0.5,0.5,0,1,0,0,0.5,-->,11.953129,10.919785,-4.190856
0.5,0.5,0,1,0,0,1,-->,11.869549,12.767125,-3.912475
0.5,0.5,0,1,0,0.5,0,-->,11.869549,0.133928,-3.377935
0.5,0.5,0,1,0,0.5,0.5,-->,13.073258,1.478341,-2.900779
0.5,0.5,0,1,0,0.5,1,-->,11.869549,8.387769,-4.570091
0.5,0.5,0,1,0,1,0,-->,11.869549,0.133928,-3.227691
0.5,0.5,0,1,0,1,0.5,-->,11.877210,0.100900,-2.308581
0.5,0.5,0,1,0,1,1,-->,11.869549,5.448079,-2.871977
0.5,0.5,0,1,0.5,0,0,-->,11.947865,6.313566,0.106964
0.5,0.5,0,1,0.5,0,0.5,-->,13.368402,2.524440,0.150084
0.5,0.5,0,1,0.5,0,1,-->,11.869549,8.322078,-3.372889
0.5,0.5,0,1,0.5,0.5,0,-->,13.666921,0.423913,0.070289
0.5,0.5,0,1,0.5,0.5,0.5,-->,13.630375,0.531797,-1.235451
0.5,0.5,0,1,0.5,0.5,1,-->,11.869549,7.369803,-3.914953
0.5,0.5,0,1,0.5,1,0,-->,11.876548,0.103757,-0.590952
0.5,0.5,0,1,0.5,1,0.5,-->,11.870783,0.128608,-1.186912
0.5,0.5,0,1,0.5,1,1,-->,11.869549,4.703593,-2.283943
0.5,0.5,0,1,1,0,0,-->,15.331914,1.633358,5.941566
0.5,0.5,0,1,1,0,0.5,-->,15.375582,3.701769,6.016818
0.5,0.5,0,1,1,0,1,-->,11.869549,7.217219,-0.028065
0.5,0.5,0,1,1,0.5,0,-->,15.677958,2.843623,6.538149
0.5,0.5,0,1,1,0.5,0.5,-->,15.362212,3.275113,5.993760
0.5,0.5,0,1,1,0.5,1,-->,11.869549,6.500577,-0.028065
0.5,0.5,0,1,1,1,0,-->,11.869549,0.133928,-0.028065
0.5,0.5,0,1,1,1,0.5,-->,11.869549,0.133928,-0.028065
0.5,0.5,0,1,1,1,1,-->,11.869549,4.032184,-0.028065
0.5,0.5,0.5,0,0,0,0,-->,70.629372,7.597943,8.398575
0.5,0.5,0.5,0,0,0,0.5,-->,45.496929,20.025404,-9.698668
0.5,0.5,0.5,0,0,0,1,-->,22.168726,38.291828,-32.209080
0.5,0.5,0.5,0,0,0.5,0,-->,57.967041,-23.300198,7.222128
0.5,0.5,0.5,0,0,0.5,0.5,-->,41.073853,-0.419733,-7.041653
0.5,0.5,0.5,0,0,0.5,1,-->,17.527519,23.995842,-28.897541
0.5,0.5,0.5,0,0,1,0,-->,47.660496,-61.245296,5.275690
0.5,0.5,0.5,0,0,1,0.5,-->,32.316647,-29.848007,-6.508466
0.5,0.5,0.5,0,0,1,1,-->,15.610605,8.243452,-22.734804
0.5,0.5,0.5,0,0.5,0,0,-->,58.572094,36.965199,36.248268
0.5,0.5,0.5,0,0.5,0,0.5,-->,42.287373,38.672142,20.025480
0.5,0.5,0.5,0,0.5,0,1,-->,18.831078,41.169979,-7.860441
0.5,0.5,0.5,0,0.5,0.5,0,-->,51.269608,7.078389,31.511017
0.5,0.5,0.5,0,0.5,0.5,0.5,-->,34.715366,17.120642,16.518679
0.5,0.5,0.5,0,0.5,0.5,1,-->,14.733174,27.042580,-8.118174
0.5,0.5,0.5,0,0.5,1,0,-->,39.381569,-33.023087,22.943846
0.5,0.5,0.5,0,0.5,1,0.5,-->,25.732946,-12.480423,9.754753
0.5,0.5,0.5,0,0.5,1,1,-->,12.521514,11.913007,-30.531111
0.5,0.5,0.5,0,1,0,0,-->,52.734089,54.268013,70.280914
0.5,0.5,0.5,0,1,0,0.5,-->,36.711658,52.586891,42.803177
0.5,0.5,0.5,0,1,0,1,-->,20.044172,34.370548,14.066108
0.5,0.5,0.5,0,1,0.5,0,-->,42.654846,30.869505,53.050041
0.5,0.5,0.5,0,1,0.5,0.5,-->,28.713985,31.992086,29.014080
0.5,0.5,0.5,0,1,0.5,1,-->,16.640999,33.219574,8.198600
0.5,0.5,0.5,0,1,1,0,-->,26.322878,3.344862,24.891483
0.5,0.5,0.5,0,1,1,0.5,-->,23.153358,5.880967,19.426754
0.5,0.5,0.5,0,1,1,1,-->,11.869549,11.435418,-4.528058
0.5,0.5,0.5,0.5,0,0,0,-->,47.579826,3.696981,7.331562
0.5,0.5,0.5,0.5,0,0,0.5,-->,32.725342,17.433334,-2.824556
0.5,0.5,0.5,0.5,0,0,1,-->,13.810609,28.653509,-19.113020
0.5,0.5,0.5,0.5,0,0.5,0,-->,41.223122,-13.563129,9.310070
0.5,0.5,0.5,0.5,0,0.5,0.5,-->,26.986807,1.392861,-2.240573
0.5,0.5,0.5,0.5,0,0.5,1,-->,12.369539,16.666506,-15.089773
0.5,0.5,0.5,0.5,0,1,0,-->,31.980886,-39.770702,8.003336
0.5,0.5,0.5,0.5,0,1,0.5,-->,20.595078,-17.050817,-1.661370
0.5,0.5,0.5,0.5,0,1,1,-->,12.204310,8.183066,-10.134558
0.5,0.5,0.5,0.5,0.5,0,0,-->,43.719028,21.408560,31.399502
0.5,0.5,0.5,0.5,0.5,0,0.5,-->,28.527174,27.748840,14.918342
0.5,0.5,0.5,0.5,0.5,0,1,-->,12.960415,27.062656,-4.075601
0.5,0.5,0.5,0.5,0.5,0.5,0,-->,35.299736,3.978516,24.823574
0.5,0.5,0.5,0.5,0.5,0.5,0.5,-->,22.575550,11.493251,10.284596
0.5,0.5,0.5,0.5,0.5,0.5,1,-->,12.427771,25.510576,-18.851131
0.5,0.5,0.5,0.5,0.5,1,0,-->,26.096968,-22.263119,16.763233
0.5,0.5,0.5,0.5,0.5,1,0.5,-->,25.994560,-22.804430,2.947388
0.5,0.5,0.5,0.5,0.5,1,1,-->,11.883230,9.032640,-19.138182
0.5,0.5,0.5,0.5,1,0,0,-->,37.581985,37.589626,44.303730
0.5,0.5,0.5,0.5,1,0,0.5,-->,24.533195,36.739368,21.805822
0.5,0.5,0.5,0.5,1,0,1,-->,15.508300,16.912064,6.245641
0.5,0.5,0.5,0.5,1,0.5,0,-->,29.187254,20.179358,29.830032
0.5,0.5,0.5,0.5,1,0.5,0.5,-->,29.003693,24.809546,29.513571
0.5,0.5,0.5,0.5,1,0.5,1,-->,13.102540,24.058750,2.097814
0.5,0.5,0.5,0.5,1,1,0,-->,15.486984,6.408729,6.208905
0.5,0.5,0.5,0.5,1,1,0.5,-->,17.498356,3.088527,9.676781
0.5,0.5,0.5,0.5,1,1,1,-->,11.869549,8.165967,-2.723382
0.5,0.5,0.5,1,0,0,0,-->,14.780166,1.096385,3.836753
0.5,0.5,0.5,1,0,0,0.5,-->,13.597071,1.512737,-0.880990
0.5,0.5,0.5,1,0,0,1,-->,11.869549,8.162091,-3.784711
0.5,0.5,0.5,1,0,0.5,0,-->,14.099566,-0.879942,-0.530163
0.5,0.5,0.5,1,0,0.5,0.5,-->,13.764289,0.151559,-1.373360
0.5,0.5,0.5,1,0,0.5,1,-->,11.869549,7.306407,-3.949326
0.5,0.5,0.5,1,0,1,0,-->,11.919720,-0.082342,-0.690408
0.5,0.5,0.5,1,0,1,0.5,-->,11.878302,0.096173,-1.159257
0.5,0.5,0.5,1,0,1,1,-->,11.869549,4.646368,-2.267749
0.5,0.5,0.5,1,0.5,0,0,-->,14.405992,0.728352,1.251828
0.5,0.5,0.5,1,0.5,0,0.5,-->,13.809451,0.524927,-0.931208
0.5,0.5,0.5,1,0.5,0,1,-->,11.869549,7.326820,-3.868595
0.5,0.5,0.5,1,0.5,0.5,0,-->,14.120859,0.187201,-0.810405
0.5,0.5,0.5,1,0.5,0.5,0.5,-->,13.826208,0.224044,-1.342970
0.5,0.5,0.5,1,0.5,0.5,1,-->,11.869549,7.203737,-3.932257
0.5,0.5,0.5,1,0.5,1,0,-->,11.876399,0.104380,-0.902300
0.5,0.5,0.5,1,0.5,1,0.5,-->,11.870981,0.127742,-1.135098
0.5,0.5,0.5,1,0.5,1,1,-->,11.869549,4.628326,-2.235451
0.5,0.5,0.5,1,1,0,0,-->,16.176014,3.196168,7.396888
0.5,0.5,0.5,1,1,0,0.5,-->,15.469250,3.340332,6.178309
0.5,0.5,0.5,1,1,0,1,-->,11.869549,6.484025,-0.028065
0.5,0.5,0.5,1,1,0.5,0,-->,15.736524,3.294902,6.639133
0.5,0.5,0.5,1,1,0.5,0.5,-->,15.414073,3.339329,6.083177
0.5,0.5,0.5,1,1,0.5,1,-->,11.869549,6.429460,-0.028065
0.5,0.5,0.5,1,1,1,0,-->,11.869549,0.133928,-0.028065
0.5,0.5,0.5,1,1,1,0.5,-->,11.869549,0.133928,-0.028065
0.5,0.5,0.5,1,1,1,1,-->,11.869549,4.032108,-0.028065
0.5,0.5,1,0,0,0,0,-->,67.679031,4.549625,55.077339
0.5,0.5,1,0,0,0,0.5,-->,44.297852,15.448520,27.254045
0.5,0.5,1,0,0,0,1,-->,23.025774,30.516748,-1.852727
0.5,0.5,1,0,0,0.5,0,-->,56.394341,-24.686964,41.731663
0.5,0.5,1,0,0,0.5,0.5,-->,39.713032,-3.527123,24.484116
0.5,0.5,1,0,0,0.5,1,-->,19.483259,12.720129,-2.584811
0.5,0.5,1,0,0,1,0,-->,47.004047,-60.963184,30.847284
0.5,0.5,1,0,0,1,0.5,-->,32.600136,-30.167387,13.649088
0.5,0.5,1,0,0,1,1,-->,17.004103,-2.489467,-5.113173
0.5,0.5,1,0,0.5,0,0,-->,58.000702,36.130642,64.335861
0.5,0.5,1,0,0.5,0,0.5,-->,41.593849,37.248009,43.112129
0.5,0.5,1,0,0.5,0,1,-->,21.363184,32.979637,11.922826
0.5,0.5,1,0,0.5,0.5,0,-->,50.745464,5.830764,55.449551
0.5,0.5,1,0,0.5,0.5,0.5,-->,33.825153,15.973317,33.450329
0.5,0.5,1,0,0.5,0.5,1,-->,19.673168,25.291723,2.082448
0.5,0.5,1,0,0.5,1,0,-->,40.648674,-31.604500,37.437710
0.5,0.5,1,0,0.5,1,0.5,-->,43.426746,-42.116348,33.679562
0.5,0.5,1,0,0.5,1,1,-->,13.845084,-1.340135,-4.499369
0.5,0.5,1,0,1,0,0,-->,53.177444,53.165524,71.192459
0.5,0.5,1,0,1,0,0.5,-->,38.522850,52.447971,45.925922
0.5,0.5,1,0,1,0,1,-->,23.639906,35.861267,20.265642
0.5,0.5,1,0,1,0.5,0,-->,44.776478,29.844109,56.708012
0.5,0.5,1,0,1,0.5,0.5,-->,48.113834,39.936123,62.462090
0.5,0.5,1,0,1,0.5,1,-->,20.751192,34.692570,15.285129
0.5,0.5,1,0,1,1,0,-->,31.136513,3.393317,33.190830
0.5,0.5,1,0,1,1,0.5,-->,28.763342,5.088634,29.099180
0.5,0.5,1,0,1,1,1,-->,11.869549,15.823939,-0.028065
0.5,0.5,1,0.5,0,0,0,-->,45.716351,0.687117,39.161907
0.5,0.5,1,0.5,0,0,0.5,-->,31.637255,14.138623,23.201487
0.5,0.5,1,0.5,0,0,1,-->,16.292713,16.906851,3.247602
0.5,0.5,1,0.5,0,0.5,0,-->,39.922394,-14.942243,35.013184
0.5,0.5,1,0.5,0,0.5,0.5,-->,26.005394,-1.078086,17.964561
0.5,0.5,1,0.5,0,0.5,1,-->,14.095062,5.549169,2.645471
0.5,0.5,1,0.5,0,1,0,-->,32.622498,-37.736664,23.382160
0.5,0.5,1,0.5,0,1,0.5,-->,21.410929,-16.199989,9.087615
0.5,0.5,1,0.5,0,1,1,-->,12.659847,0.663878,-3.354908
0.5,0.5,1,0.5,0.5,0,0,-->,42.779678,19.453018,50.718136
0.5,0.5,1,0.5,0.5,0,0.5,-->,27.922270,26.090244,27.649027
0.5,0.5,1,0.5,0.5,0,1,-->,15.651207,17.333963,6.492035
0.5,0.5,1,0.5,0.5,0.5,0,-->,34.724052,2.607321,39.376263
0.5,0.5,1,0.5,0.5,0.5,0.5,-->,35.213490,4.339177,32.533634
0.5,0.5,1,0.5,0.5,0.5,1,-->,14.893599,18.417770,1.341320
0.5,0.5,1,0.5,0.5,1,0,-->,27.547737,-20.803951,23.799271
0.5,0.5,1,0.5,0.5,1,0.5,-->,30.947832,-29.775370,22.873625
0.5,0.5,1,0.5,0.5,1,1,-->,11.941390,1.416024,-3.129801
0.5,0.5,1,0.5,1,0,0,-->,39.331982,37.058266,47.320965
0.5,0.5,1,0.5,1,0,0.5,-->,26.867142,36.239819,25.829866
0.5,0.5,1,0.5,1,0,1,-->,16.934307,24.694624,8.704307
0.5,0.5,1,0.5,1,0.5,0,-->,31.555227,19.884325,33.912746
0.5,0.5,1,0.5,1,0.5,0.5,-->,34.991344,26.458109,39.837132
0.5,0.5,1,0.5,1,0.5,1,-->,15.783233,24.709307,6.719658
0.5,0.5,1,0.5,1,1,0,-->,24.137585,1.614085,21.123728
0.5,0.5,1,0.5,1,1,0.5,-->,21.563530,2.325969,16.685719
0.5,0.5,1,0.5,1,1,1,-->,11.869549,8.683834,-0.662753
0.5,0.5,1,1,0,0,0,-->,14.871245,-3.030748,5.147287
0.5,0.5,1,1,0,0,0.5,-->,13.359037,-2.192277,2.540019
0.5,0.5,1,1,0,0,1,-->,11.869549,6.631685,-0.078177
0.5,0.5,1,1,0,0.5,0,-->,13.875675,-4.008663,3.430768
0.5,0.5,1,1,0,0.5,0.5,-->,13.289191,-3.106052,2.419581
0.5,0.5,1,1,0,0.5,1,-->,11.869549,5.943162,-0.152547
0.5,0.5,1,1,0,1,0,-->,12.702385,-3.455892,1.407847
0.5,0.5,1,1,0,1,0.5,-->,12.123213,-0.959479,0.409291
0.5,0.5,1,1,0,1,1,-->,11.869549,3.385109,-0.336791
0.5,0.5,1,1,0.5,0,0,-->,14.081892,-2.675072,3.786352
0.5,0.5,1,1,0.5,0,0.5,-->,13.298704,-2.811971,2.436011
0.5,0.5,1,1,0.5,0,1,-->,11.869549,5.976449,-0.145266
0.5,0.5,1,1,0.5,0.5,0,-->,13.603995,-2.946385,2.962374
0.5,0.5,1,1,0.5,0.5,0.5,-->,13.232086,-2.944584,2.321151
0.5,0.5,1,1,0.5,0.5,1,-->,11.869549,5.910499,-0.162973
0.5,0.5,1,1,0.5,1,0,-->,12.384850,-2.087220,0.860403
0.5,0.5,1,1,0.5,1,0.5,-->,12.047900,-0.634840,0.279445
0.5,0.5,1,1,0.5,1,1,-->,11.869549,3.418076,-0.340834
0.5,0.5,1,1,1,0,0,-->,16.661234,4.787614,8.233466
0.5,0.5,1,1,1,0,0.5,-->,15.940645,4.827527,6.991055
0.5,0.5,1,1,1,0,1,-->,11.869549,7.015434,-0.028065
0.5,0.5,1,1,1,0.5,0,-->,16.197378,4.818909,7.433731
0.5,0.5,1,1,1,0.5,0.5,-->,15.869061,4.827178,6.867683
0.5,0.5,1,1,1,0.5,1,-->,11.869549,6.999217,-0.028065
0.5,0.5,1,1,1,1,0,-->,11.869549,0.133928,-0.028065
0.5,0.5,1,1,1,1,0.5,-->,11.869549,0.133928,-0.028065
0.5,0.5,1,1,1,1,1,-->,11.869549,0.335697,-2.120309
0.5,1,0,0,0,0,0,-->,47.251862,66.501167,-34.315258
0.5,1,0,0,0,0,0.5,-->,32.259415,56.475040,-39.155727
0.5,1,0,0,0,0,1,-->,19.604704,51.714321,-46.866077
0.5,1,0,0,0,0.5,0,-->,35.634186,36.518539,-34.319889
0.5,1,0,0,0,0.5,0.5,-->,24.051069,35.805958,-36.985527
0.5,1,0,0,0,0.5,1,-->,15.134478,36.762760,-41.026260
0.5,1,0,0,0,1,0,-->,25.297810,0.178856,-36.554577
0.5,1,0,0,0,1,0.5,-->,17.621622,13.343584,-36.079712
0.5,1,0,0,0,1,1,-->,12.982655,24.550140,-36.829697
0.5,1,0,0,0.5,0,0,-->,45.387672,63.010994,9.644346
0.5,1,0,0,0.5,0,0.5,-->,31.144173,51.259773,-1.454395
0.5,1,0,0,0.5,0,1,-->,19.147343,43.065910,-13.796847
0.5,1,0,0,0.5,0.5,0,-->,32.772755,38.087372,0.621730
0.5,1,0,0,0.5,0.5,0.5,-->,22.664629,40.485451,-8.637218
0.5,1,0,0,0.5,0.5,1,-->,15.282796,30.166908,-15.644163
0.5,1,0,0,0.5,1,0,-->,19.809963,7.234120,-12.429612
0.5,1,0,0,0.5,1,0.5,-->,13.037564,18.014978,-19.311043
0.5,1,0,0,0.5,1,1,-->,11.869549,16.426329,-24.385578
0.5,1,0,0,1,0,0,-->,44.433708,62.994411,50.401157
0.5,1,0,0,1,0,0.5,-->,30.415112,50.333458,28.875160
0.5,1,0,0,1,0,1,-->,20.045979,40.723667,12.629876
0.5,1,0,0,1,0.5,0,-->,31.081373,40.660320,30.083206
0.5,1,0,0,1,0.5,0.5,-->,25.356855,32.524910,21.622063
0.5,1,0,0,1,0.5,1,-->,16.356794,39.024887,7.646338
0.5,1,0,0,1,1,0,-->,18.773596,12.885496,10.527039
0.5,1,0,0,1,1,0.5,-->,13.945888,21.037958,3.428503
0.5,1,0,0,1,1,1,-->,11.869549,14.476684,-5.561518
0.5,1,0,0.5,0,0,0,-->,31.461611,44.878761,-22.476418
0.5,1,0,0.5,0,0,0.5,-->,22.053532,38.025585,-24.746910
0.5,1,0,0.5,0,0,1,-->,13.694899,34.683270,-29.035694
0.5,1,0,0.5,0,0.5,0,-->,23.986282,23.858152,-22.181538
0.5,1,0,0.5,0,0.5,0.5,-->,17.566000,23.555597,-21.145880
0.5,1,0,0.5,0,0.5,1,-->,13.421707,21.510107,-20.149712
0.5,1,0,0.5,0,1,0,-->,16.264614,0.376993,-24.025213
0.5,1,0,0.5,0,1,0.5,-->,12.000321,9.799150,-24.705719
0.5,1,0,0.5,0,1,1,-->,11.869549,15.078587,-17.558895
0.5,1,0,0.5,0.5,0,0,-->,31.844604,39.464569,9.960793
0.5,1,0,0.5,0.5,0,0.5,-->,20.752098,41.416203,-1.110202
0.5,1,0,0.5,0.5,0,1,-->,15.234431,26.901104,-7.194352
0.5,1,0,0.5,0.5,0.5,0,-->,23.471626,26.707603,2.742229
0.5,1,0,0.5,0.5,0.5,0.5,-->,15.858152,25.451590,-4.021499
0.5,1,0,0.5,0.5,0.5,1,-->,12.439272,26.125885,-14.353851
0.5,1,0,0.5,0.5,1,0,-->,12.967986,6.431010,-10.153124
0.5,1,0,0.5,0.5,1,0.5,-->,12.036695,9.689366,-15.004171
0.5,1,0,0.5,0.5,1,1,-->,11.869549,10.950624,-14.056357
0.5,1,0,0.5,1,0,0,-->,31.221092,38.976479,33.336666
0.5,1,0,0.5,1,0,0.5,-->,24.645964,32.016769,22.000265
0.5,1,0,0.5,1,0,1,-->,17.552525,23.685322,9.770164
0.5,1,0,0.5,1,0.5,0,-->,26.527695,20.798283,25.244606
0.5,1,0,0.5,1,0.5,0.5,-->,24.503357,29.378071,21.754372
0.5,1,0,0.5,1,0.5,1,-->,13.119331,27.827358,2.126753
0.5,1,0,0.5,1,1,0,-->,13.571108,7.232904,2.905651
0.5,1,0,0.5,1,1,0.5,-->,12.087827,12.407086,0.348282
0.5,1,0,0.5,1,1,1,-->,11.869549,8.599113,-4.252853
0.5,1,0,1,0,0,0,-->,12.971717,13.654666,1.872228
0.5,1,0,1,0,0,0.5,-->,11.959973,12.396189,-0.885231
0.5,1,0,1,0,0,1,-->,11.869549,13.213404,-2.562400
0.5,1,0,1,0,0.5,0,-->,11.869549,1.800077,-1.301179
0.5,1,0,1,0,0.5,0.5,-->,11.877389,8.952935,-0.014553
0.5,1,0,1,0,0.5,1,-->,11.869549,8.549609,-2.570836
0.5,1,0,1,0,1,0,-->,11.869549,1.236279,-2.600413
0.5,1,0,1,0,1,0.5,-->,11.869549,1.893917,-2.860517
0.5,1,0,1,0,1,1,-->,11.869549,5.330164,-2.237609
0.5,1,0,1,0.5,0,0,-->,14.428419,4.921306,4.383787
0.5,1,0,1,0.5,0,0.5,-->,12.148396,9.402877,0.452730
0.5,1,0,1,0.5,0,1,-->,11.869549,8.440039,-1.538750
0.5,1,0,1,0.5,0.5,0,-->,12.099781,8.190149,0.368877
0.5,1,0,1,0.5,0.5,0.5,-->,11.921768,8.872197,0.061975
0.5,1,0,1,0.5,0.5,1,-->,11.869549,7.448429,-1.895962
0.5,1,0,1,0.5,1,0,-->,11.869549,1.367661,-1.778305
0.5,1,0,1,0.5,1,0.5,-->,11.869549,1.408774,-2.222394
0.5,1,0,1,0.5,1,1,-->,11.869549,4.694549,-1.651680
0.5,1,0,1,1,0,0,-->,15.919087,4.845447,6.953908
0.5,1,0,1,1,0,0.5,-->,15.016660,7.618006,5.397998
0.5,1,0,1,1,0,1,-->,11.869549,8.075061,-0.028065
0.5,1,0,1,1,0.5,0,-->,15.237981,7.018535,5.779573
0.5,1,0,1,1,0.5,0.5,-->,14.788985,7.381415,5.005464
0.5,1,0,1,1,0.5,1,-->,11.869549,7.349163,-0.028065
0.5,1,0,1,1,1,0,-->,11.869549,0.133928,-0.028065
0.5,1,0,1,1,1,0.5,-->,11.869549,0.133928,-0.028065
0.5,1,0,1,1,1,1,-->,11.869549,0.574446,-2.376871
0.5,1,0.5,0,0,0,0,-->,46.621162,58.208218,-2.162912
0.5,1,0.5,0,0,0,0.5,-->,32.176662,49.567711,-11.820877
0.5,1,0.5,0,0,0,1,-->,19.717491,43.668541,-22.732698
0.5,1,0.5,0,0,0.5,0,-->,35.305458,30.517159,-7.733467
0.5,1,0.5,0,0,0.5,0.5,-->,26.271343,32.215393,-12.161825
0.5,1,0.5,0,0,0.5,1,-->,16.904694,27.365410,-20.117815
0.5,1,0.5,0,0,1,0,-->,24.493906,-6.399123,-15.213609
0.5,1,0.5,0,0,1,0.5,-->,15.313522,8.075973,-22.051220
0.5,1,0.5,0,0,1,1,-->,12.180241,16.968437,-22.370365
0.5,1,0.5,0,0.5,0,0,-->,45.315792,60.324703,30.233860
0.5,1,0.5,0,0.5,0,0.5,-->,30.580994,59.738762,13.948041
0.5,1,0.5,0,0.5,0,1,-->,19.173845,40.728729,-2.431642
0.5,1,0.5,0,0.5,0.5,0,-->,34.962734,39.506626,19.474737
0.5,1,0.5,0,0.5,0.5,0.5,-->,23.071106,39.720795,7.084743
0.5,1,0.5,0,0.5,0.5,1,-->,14.725561,40.467197,-23.919527
0.5,1,0.5,0,0.5,1,0,-->,20.953510,6.505061,0.682816
0.5,1,0.5,0,0.5,1,0.5,-->,15.501242,11.822434,-21.406509
0.5,1,0.5,0,0.5,1,1,-->,11.869549,15.661035,-23.106689
0.5,1,0.5,0,1,0,0,-->,44.550129,62.562725,56.317772
0.5,1,0.5,0,1,0,0.5,-->,33.076450,54.372112,36.535549
0.5,1,0.5,0,1,0,1,-->,21.017916,38.611362,15.745010
0.5,1,0.5,0,1,0.5,0,-->,36.078476,39.238541,41.711464
0.5,1,0.5,0,1,0.5,0.5,-->,35.109341,51.699760,40.040558
0.5,1,0.5,0,1,0.5,1,-->,16.373930,38.802536,7.738110
0.5,1,0.5,0,1,1,0,-->,20.352734,13.659453,14.598125
0.5,1,0.5,0,1,1,0.5,-->,14.181280,21.134245,3.957693
0.5,1,0.5,0,1,1,1,-->,11.869549,14.442714,-5.470316
0.5,1,0.5,0.5,0,0,0,-->,31.212265,37.473537,-0.003625
0.5,1,0.5,0.5,0,0,0.5,-->,22.206076,37.929466,-4.084948
0.5,1,0.5,0.5,0,0,1,-->,15.486923,25.839138,-9.563228
0.5,1,0.5,0.5,0,0.5,0,-->,25.820580,19.618584,1.174768
0.5,1,0.5,0.5,0,0.5,0.5,-->,17.674297,20.520456,-4.770705
0.5,1,0.5,0.5,0,0.5,1,-->,13.530089,17.245838,-8.457412
0.5,1,0.5,0.5,0,1,0,-->,14.451526,-1.860570,-10.835339
0.5,1,0.5,0.5,0,1,0.5,-->,11.943838,6.561404,-13.542709
0.5,1,0.5,0.5,0,1,1,-->,11.869549,11.259366,-14.040710
0.5,1,0.5,0.5,0.5,0,0,-->,31.338333,43.020477,22.406494
0.5,1,0.5,0.5,0.5,0,0.5,-->,20.394520,40.840733,9.849003
0.5,1,0.5,0.5,0.5,0,1,-->,15.285653,23.853897,1.098088
0.5,1,0.5,0.5,0.5,0.5,0,-->,23.721886,26.438776,14.401037
0.5,1,0.5,0.5,0.5,0.5,0.5,-->,22.160992,32.612061,1.493677
0.5,1,0.5,0.5,0.5,0.5,1,-->,12.308237,28.237448,-15.318932
0.5,1,0.5,0.5,0.5,1,0,-->,12.823771,6.295115,-3.036797
0.5,1,0.5,0.5,0.5,1,0.5,-->,12.266857,8.252435,-14.733732
0.5,1,0.5,0.5,0.5,1,1,-->,11.869549,10.580479,-13.598505
0.5,1,0.5,0.5,1,0,0,-->,33.894470,39.355057,37.945942
0.5,1,0.5,0.5,1,0,0.5,-->,25.082281,31.274351,22.752518
0.5,1,0.5,0.5,1,0,1,-->,14.540071,27.278988,4.576300
0.5,1,0.5,0.5,1,0.5,0,-->,27.311871,21.050879,26.596634
0.5,1,0.5,0.5,1,0.5,0.5,-->,26.779350,33.910011,25.678482
0.5,1,0.5,0.5,1,0.5,1,-->,12.833328,28.187534,1.633631
0.5,1,0.5,0.5,1,1,0,-->,15.678070,10.354969,6.538363
0.5,1,0.5,0.5,1,1,0.5,-->,12.337520,12.797022,0.778799
0.5,1,0.5,0.5,1,1,1,-->,11.869549,8.584507,-4.198607
0.5,1,0.5,1,0,0,0,-->,13.576884,7.838333,2.915637
0.5,1,0.5,1,0,0,0.5,-->,11.919711,9.767520,0.058433
0.5,1,0.5,1,0,0,1,-->,11.869549,8.258013,-1.862827
0.5,1,0.5,1,0,0.5,0,-->,11.960608,8.054831,0.128957
0.5,1,0.5,1,0,0.5,0.5,-->,11.876987,8.886120,-0.015237
0.5,1,0.5,1,0,0.5,1,-->,11.869549,7.378801,-1.911731
0.5,1,0.5,1,0,1,0,-->,11.869549,0.859521,-1.959236
0.5,1,0.5,1,0,1,0.5,-->,11.869549,1.299219,-2.234653
0.5,1,0.5,1,0,1,1,-->,11.869549,4.649408,-1.637925
0.5,1,0.5,1,0.5,0,0,-->,12.216500,9.076139,0.570144
0.5,1,0.5,1,0.5,0,0.5,-->,11.905911,9.086171,0.034631
0.5,1,0.5,1,0.5,0,1,-->,11.869549,7.378953,-1.851002
0.5,1,0.5,1,0.5,0.5,0,-->,11.905445,9.088071,0.033826
0.5,1,0.5,1,0.5,0.5,0.5,-->,11.877020,9.011863,-0.015176
0.5,1,0.5,1,0.5,0.5,1,-->,11.869549,7.262345,-1.871096
0.5,1,0.5,1,0.5,1,0,-->,11.869549,1.424475,-2.101424
0.5,1,0.5,1,0.5,1,0.5,-->,11.869549,1.375549,-2.214658
0.5,1,0.5,1,0.5,1,1,-->,11.869549,4.641322,-1.599585
0.5,1,0.5,1,1,0,0,-->,15.584129,7.220562,6.376369
0.5,1,0.5,1,1,0,0.5,-->,14.833762,7.402557,5.082645
0.5,1,0.5,1,1,0,1,-->,11.869549,7.315740,-0.028065
0.5,1,0.5,1,1,0.5,0,-->,15.093559,7.393818,5.530581
0.5,1,0.5,1,1,0.5,0.5,-->,14.753357,7.426831,4.944029
0.5,1,0.5,1,1,0.5,1,-->,11.869549,7.276100,-0.028065
0.5,1,0.5,1,1,1,0,-->,11.869549,0.133928,-0.028065
0.5,1,0.5,1,1,1,0.5,-->,11.869549,0.133928,-0.028065
0.5,1,0.5,1,1,1,1,-->,11.869549,0.574446,-2.372296
0.5,1,1,0,0,0,0,-->,46.386677,53.072506,30.168108
0.5,1,1,0,0,0,0.5,-->,31.627905,46.304382,13.352233
0.5,1,1,0,0,0,1,-->,20.921114,40.198948,-1.880116
0.5,1,1,0,0,0.5,0,-->,34.944942,26.924679,16.873230
0.5,1,1,0,0,0.5,0.5,-->,26.638988,29.367096,8.420234
0.5,1,1,0,0,0.5,1,-->,18.438883,24.908613,-2.658695
0.5,1,1,0,0,1,0,-->,25.397549,-8.062126,3.179358
0.5,1,1,0,0,1,0.5,-->,16.540997,6.916457,-7.204664
0.5,1,1,0,0,1,1,-->,11.869549,14.759830,-9.739052
0.5,1,1,0,0.5,0,0,-->,45.051811,59.418530,48.872559
0.5,1,1,0,0.5,0,0.5,-->,31.049311,58.178490,27.254759
0.5,1,1,0,0.5,0,1,-->,20.973188,39.342125,10.598399
0.5,1,1,0,0.5,0.5,0,-->,35.451286,38.070774,33.036835
0.5,1,1,0,0.5,0.5,0.5,-->,35.715019,49.963829,28.196684
0.5,1,1,0,0.5,0.5,1,-->,16.742834,38.018139,1.094455
0.5,1,1,0,0.5,1,0,-->,22.550535,6.751470,10.967511
0.5,1,1,0,0.5,1,0.5,-->,17.001703,11.653419,0.095778
0.5,1,1,0,0.5,1,1,-->,11.869549,14.346579,-9.135835
0.5,1,1,0,1,0,0,-->,45.085938,62.383934,57.241581
0.5,1,1,0,1,0,0.5,-->,34.082420,55.776501,38.269989
0.5,1,1,0,1,0,1,-->,19.065899,40.934799,12.379424
0.5,1,1,0,1,0.5,0,-->,37.111149,40.509830,43.491943
0.5,1,1,0,1,0.5,0.5,-->,35.910603,52.617439,41.422028
0.5,1,1,0,1,0.5,1,-->,18.328194,40.589294,11.107541
0.5,1,1,0,1,1,0,-->,22.033321,22.982481,15.008062
0.5,1,1,0,1,1,0.5,-->,16.687449,25.198400,8.278654
0.5,1,1,0,1,1,1,-->,11.869549,6.149856,-11.639042
0.5,1,1,0.5,0,0,0,-->,31.067669,32.881420,20.524591
0.5,1,1,0.5,0,0,0.5,-->,23.027983,34.966553,12.016817
0.5,1,1,0.5,0,0,1,-->,17.165838,24.003426,5.215425
0.5,1,1,0.5,0,0.5,0,-->,26.571346,17.010706,17.207794
0.5,1,1,0.5,0,0.5,0.5,-->,18.607235,18.568213,7.422362
0.5,1,1,0.5,0,0.5,1,-->,13.929661,24.035404,-0.470909
0.5,1,1,0.5,0,1,0,-->,15.647331,-1.695112,0.691190
0.5,1,1,0.5,0,1,0.5,-->,13.252504,5.711360,-2.686623
0.5,1,1,0.5,0,1,1,-->,11.869549,8.591696,-6.531462
0.5,1,1,0.5,0.5,0,0,-->,31.825754,40.900661,33.577637
0.5,1,1,0.5,0.5,0,0.5,-->,21.283062,39.360802,16.202141
0.5,1,1,0.5,0.5,0,1,-->,14.519292,27.712437,3.470240
0.5,1,1,0.5,0.5,0.5,0,-->,24.681160,24.907169,22.060925
0.5,1,1,0.5,0.5,0.5,0.5,-->,25.752705,32.707359,19.051714
0.5,1,1,0.5,0.5,0.5,1,-->,12.935859,28.207186,0.150464
0.5,1,1,0.5,0.5,1,0,-->,16.864388,5.738536,4.582318
0.5,1,1,0.5,0.5,1,0.5,-->,13.254623,7.894175,-0.538484
0.5,1,1,0.5,0.5,1,1,-->,11.869549,8.577880,-6.182907
0.5,1,1,0.5,1,0,0,-->,34.716385,40.665092,39.363022
0.5,1,1,0.5,1,0,0.5,-->,27.668015,37.388115,27.210682
0.5,1,1,0.5,1,0,1,-->,14.903414,27.629221,5.202749
0.5,1,1,0.5,1,0.5,0,-->,29.849989,32.820004,30.972708
0.5,1,1,0.5,1,0.5,0.5,-->,27.512205,36.060635,26.942051
0.5,1,1,0.5,1,0.5,1,-->,14.411877,27.598686,4.355258
0.5,1,1,0.5,1,1,0,-->,16.929750,15.072400,8.696434
0.5,1,1,0.5,1,1,0.5,-->,13.295846,17.259640,2.431056
0.5,1,1,0.5,1,1,1,-->,11.869549,4.296483,-8.225236
0.5,1,1,1,0,0,0,-->,14.819447,3.035558,5.057977
0.5,1,1,1,0,0,0.5,-->,12.413074,4.460011,0.909056
0.5,1,1,1,0,0,1,-->,11.869549,7.900544,-0.028065
0.5,1,1,1,0,0.5,0,-->,12.742360,3.052110,1.476776
0.5,1,1,1,0,0.5,0.5,-->,12.046708,3.830780,0.277377
0.5,1,1,1,0,0.5,1,-->,11.869549,7.236051,-0.028065
0.5,1,1,1,0,1,0,-->,11.869549,0.133928,-0.028065
0.5,1,1,1,0,1,0.5,-->,11.869549,0.133928,-0.173901
0.5,1,1,1,0,1,1,-->,11.869549,0.994369,-2.138343
0.5,1,1,1,0.5,0,0,-->,12.961157,3.897960,1.854019
0.5,1,1,1,0.5,0,0.5,-->,12.064360,3.977284,0.307821
0.5,1,1,1,0.5,0,1,-->,11.869549,7.254700,-0.028065
0.5,1,1,1,0.5,0.5,0,-->,12.326097,3.919923,0.759085
0.5,1,1,1,0.5,0.5,0.5,-->,11.952899,3.945260,0.115658
0.5,1,1,1,0.5,0.5,1,-->,11.869549,7.200895,-0.028065
0.5,1,1,1,0.5,1,0,-->,11.869549,0.238027,-0.040346
0.5,1,1,1,0.5,1,0.5,-->,11.869549,0.215380,-0.203813
0.5,1,1,1,0.5,1,1,-->,11.869549,1.030041,-2.133935
0.5,1,1,1,1,0,0,-->,15.699211,8.935517,6.574810
0.5,1,1,1,1,0,0.5,-->,14.964960,9.006557,5.308855
0.5,1,1,1,1,0,1,-->,11.869549,2.708229,-1.139209
0.5,1,1,1,1,0.5,0,-->,15.222834,9.013276,5.753461
0.5,1,1,1,1,0.5,0.5,-->,14.895615,9.020222,5.189298
0.5,1,1,1,1,0.5,1,-->,11.869549,2.708259,-1.139209
0.5,1,1,1,1,1,0,-->,11.869549,0.789940,-1.352606
0.5,1,1,1,1,1,0.5,-->,11.869549,0.716573,-1.459517
0.5,1,1,1,1,1,1,-->,11.869549,0.574446,-2.366429
1,0,0,0,0,0,0,-->,76.464874,-52.156387,-64.176216
1,0,0,0,0,0,0.5,-->,48.690819,-5.441042,-69.897415
1,0,0,0,0,0,1,-->,24.232607,48.776302,-82.631660
1,0,0,0,0,0.5,0,-->,68.762199,-71.574089,-43.414669
1,0,0,0,0,0.5,0.5,-->,44.142097,-24.011284,-51.718479
1,0,0,0,0,0.5,1,-->,23.509785,25.365303,-64.197952
1,0,0,0,0,1,0,-->,62.140064,-87.831215,-27.326500
1,0,0,0,0,1,0.5,-->,40.526543,-38.465397,-37.853409
1,0,0,0,0,1,1,-->,23.288958,7.819426,-50.604809
1,0,0,0,0.5,0,0,-->,52.647217,-26.220766,-26.266691
1,0,0,0,0.5,0,0.5,-->,33.321026,0.567971,-33.193150
1,0,0,0,0.5,0,1,-->,17.408403,28.892700,-43.199783
1,0,0,0,0.5,0.5,0,-->,46.147419,-41.020813,-16.332603
1,0,0,0,0.5,0.5,0.5,-->,29.245005,-12.184024,-24.439285
1,0,0,0,0.5,0.5,1,-->,15.987598,16.651125,-34.704815
1,0,0,0,0.5,1,0,-->,40.808861,-54.696964,-9.385618
1,0,0,0,0.5,1,0.5,-->,26.319344,-22.187519,-19.013914
1,0,0,0,0.5,1,1,-->,15.553333,7.124352,-27.048674
1,0,0,0,1,0,0,-->,36.056995,2.528042,22.918022
1,0,0,0,1,0,0.5,-->,23.533743,10.914481,6.588398
1,0,0,0,1,0,1,-->,13.804281,19.707514,-5.710105
1,0,0,0,1,0.5,0,-->,29.984627,-8.640865,16.649210
1,0,0,0,1,0.5,0.5,-->,18.918205,1.799257,3.273973
1,0,0,0,1,0.5,1,-->,12.061494,13.763309,-4.994665
1,0,0,0,1,1,0,-->,24.671543,-19.636595,11.908857
1,0,0,0,1,1,0.5,-->,17.134178,-2.998024,1.908250
1,0,0,0,1,1,1,-->,11.869549,8.989277,-4.735534
1,0,0,0.5,0,0,0,-->,50.150089,-37.877422,-41.547653
1,0,0,0.5,0,0,0.5,-->,32.176445,-3.477619,-45.774197
1,0,0,0.5,0,0,1,-->,16.626390,31.776121,-53.203178
1,0,0,0.5,0,0.5,0,-->,45.431004,-49.713940,-28.037632
1,0,0,0.5,0,0.5,0.5,-->,29.417255,-14.322268,-33.550770
1,0,0,0.5,0,0.5,1,-->,16.086033,18.727076,-41.089581
1,0,0,0.5,0,1,0,-->,40.814369,-59.906643,-18.079840
1,0,0,0.5,0,1,0.5,-->,26.810211,-22.065994,-24.865934
1,0,0,0.5,0,1,1,-->,15.709357,8.964243,-32.276592
1,0,0,0.5,0.5,0,0,-->,36.324615,-19.233345,-12.830825
1,0,0,0.5,0.5,0,0.5,-->,23.442608,0.813301,-18.680649
1,0,0,0.5,0.5,0,1,-->,12.831642,21.324282,-26.382812
1,0,0,0.5,0.5,0.5,0,-->,31.674051,-28.265026,-7.667069
1,0,0,0.5,0.5,0.5,0.5,-->,22.515663,-9.124633,-14.125522
1,0,0,0.5,0.5,0.5,1,-->,13.354191,19.964760,-20.682678
1,0,0,0.5,0.5,1,0,-->,27.037739,-36.372856,-5.138708
1,0,0,0.5,0.5,1,0.5,-->,22.563530,-16.205477,-6.390231
1,0,0,0.5,0.5,1,1,-->,13.005133,7.575023,-19.716936
1,0,0,0.5,1,0,0,-->,26.561001,-1.323773,19.823681
1,0,0,0.5,1,0,0.5,-->,17.488722,6.661065,7.073282
1,0,0,0.5,1,0,1,-->,11.870373,14.808010,-1.381644
1,0,0,0.5,1,0.5,0,-->,21.623636,-7.789643,13.649787
1,0,0,0.5,1,0.5,0.5,-->,13.743300,-0.659523,0.013489
1,0,0,0.5,1,0.5,1,-->,11.869549,10.377737,-2.662411
1,0,0,0.5,1,1,0,-->,17.809505,-15.025017,9.796369
1,0,0,0.5,1,1,0.5,-->,14.370879,-5.743400,3.334253
1,0,0,0.5,1,1,1,-->,11.869549,4.757991,-3.615780
1,0,0,1,0,0,0,-->,12.630686,-3.146854,-11.032944
1,0,0,1,0,0,0.5,-->,11.941582,7.542542,-9.446247
1,0,0,1,0,0,1,-->,11.869549,11.762915,-8.084553
1,0,0,1,0,0.5,0,-->,14.294213,-10.317214,-5.544480
1,0,0,1,0,0.5,0.5,-->,11.869549,3.400217,-4.666811
1,0,0,1,0,0.5,1,-->,11.869549,6.743262,-2.713176
1,0,0,1,0,1,0,-->,13.120569,-5.258409,-3.785448
1,0,0,1,0,1,0.5,-->,11.869549,3.598369,-3.421139
1,0,0,1,0,1,1,-->,11.869549,8.066352,-4.273843
1,0,0,1,0.5,0,0,-->,12.555819,-2.824145,1.155146
1,0,0,1,0.5,0,0.5,-->,11.869549,4.924726,-0.028065
1,0,0,1,0.5,0,1,-->,11.869549,6.715767,-0.028065
1,0,0,1,0.5,0.5,0,-->,11.869549,0.133928,-0.028065
1,0,0,1,0.5,0.5,0.5,-->,11.876395,0.104411,-4.782690
1,0,0,1,0.5,0.5,1,-->,11.869549,5.588276,-4.187360
1,0,0,1,0.5,1,0,-->,11.869549,0.133928,-0.028065
1,0,0,1,0.5,1,0.5,-->,11.869549,0.133928,-2.528962
1,0,0,1,0.5,1,1,-->,11.869549,4.144719,-3.179457
1,0,0,1,1,0,0,-->,17.786125,-5.772171,10.172928
1,0,0,1,1,0,0.5,-->,12.253439,0.915850,0.633814
1,0,0,1,1,0,1,-->,11.869549,9.272529,-0.028065
1,0,0,1,1,0.5,0,-->,12.528589,-2.706769,1.108226
1,0,0,1,1,0.5,0.5,-->,12.644007,-3.204262,1.307198
1,0,0,1,1,0.5,1,-->,11.869549,4.723732,-0.028065
1,0,0,1,1,1,0,-->,11.869549,0.133928,-0.028065
1,0,0,1,1,1,0.5,-->,11.869549,0.133928,-0.028065
1,0,0,1,1,1,1,-->,11.869549,0.237160,-2.071930
1,0,0.5,0,0,0,0,-->,70.801910,-77.069847,-13.187132
1,0,0.5,0,0,0,0.5,-->,45.243874,-31.151207,-29.492710
1,0,0.5,0,0,0,1,-->,22.505903,21.081945,-49.430004
1,0,0.5,0,0,0.5,0,-->,64.516556,-88.990929,-3.402983
1,0,0.5,0,0,0.5,0.5,-->,41.354191,-44.001144,-18.958437
1,0,0.5,0,0,0.5,1,-->,21.589182,4.470604,-37.472160
1,0,0.5,0,0,1,0,-->,59.236412,-98.183784,3.111873
1,0,0.5,0,0,1,0.5,-->,38.573593,-52.948048,-12.063145
1,0,0.5,0,0,1,1,-->,21.889723,-7.830323,-28.257221
1,0,0.5,0,0.5,0,0,-->,50.808834,-36.425323,7.691281
1,0,0.5,0,0.5,0,0.5,-->,32.211739,-11.235116,-6.594098
1,0,0.5,0,0.5,0,1,-->,16.868616,16.466576,-22.605587
1,0,0.5,0,0.5,0.5,0,-->,44.934235,-49.711987,10.755163
1,0,0.5,0,0.5,0.5,0.5,-->,32.616344,-26.079969,-0.076308
1,0,0.5,0,0.5,0.5,1,-->,16.560024,14.754723,-17.672640
1,0,0.5,0,0.5,1,0,-->,40.398968,-61.014908,11.212355
1,0,0.5,0,0.5,1,0.5,-->,31.394682,-35.694420,5.241690
1,0,0.5,0,0.5,1,1,-->,13.092500,5.308657,-32.914562
1,0,0.5,0,1,0,0,-->,37.537552,-0.248119,35.644497
1,0,0.5,0,1,0,0.5,-->,24.069723,8.518619,16.739994
1,0,0.5,0,1,0,1,-->,14.913595,17.182549,3.257573
1,0,0.5,0,1,0.5,0,-->,31.131060,-11.747374,27.594461
1,0,0.5,0,1,0.5,0.5,-->,19.910225,-2.931049,10.577166
1,0,0.5,0,1,0.5,1,-->,11.869549,9.709323,-6.255323
1,0,0.5,0,1,1,0,-->,26.784334,-23.021490,22.068129
1,0,0.5,0,1,1,0.5,-->,15.330407,-12.645904,4.041030
1,0,0.5,0,1,1,1,-->,11.869549,3.759146,-5.642439
1,0,0.5,0.5,0,0,0,-->,47.074860,-53.233070,-8.870579
1,0,0.5,0.5,0,0,0.5,-->,30.038956,-18.549086,-19.604082
1,0,0.5,0.5,0,0,1,-->,15.150799,16.851252,-31.356342
1,0,0.5,0.5,0,0.5,0,-->,42.976624,-60.426727,-1.893218
1,0,0.5,0.5,0,0.5,0.5,-->,28.087681,-28.114212,-13.221747
1,0,0.5,0.5,0,0.5,1,-->,15.617917,13.110398,-23.023823
1,0,0.5,0.5,0,1,0,-->,39.187248,-66.979843,3.165998
1,0,0.5,0.5,0,1,0.5,-->,27.777941,-31.433388,-4.952692
1,0,0.5,0.5,0,1,1,-->,16.212669,3.761684,-15.828112
1,0,0.5,0.5,0.5,0,0,-->,35.203476,-24.691538,7.847468
1,0,0.5,0.5,0.5,0,0.5,-->,25.608891,-7.514029,0.496413
1,0,0.5,0.5,0.5,0,1,-->,14.357562,20.595921,-12.644224
1,0,0.5,0.5,0.5,0.5,0,-->,33.307987,-34.161533,11.314980
1,0,0.5,0.5,0.5,0.5,0.5,-->,21.959040,-14.670450,1.337080
1,0,0.5,0.5,0.5,0.5,1,-->,12.573377,17.154354,-23.178240
1,0,0.5,0.5,0.5,1,0,-->,31.455254,-42.122433,13.433168
1,0,0.5,0.5,0.5,1,0.5,-->,24.883312,-29.413301,-3.711496
1,0,0.5,0.5,0.5,1,1,-->,12.106151,5.395460,-21.076048
1,0,0.5,0.5,1,0,0,-->,27.169621,-2.126503,26.351397
1,0,0.5,0.5,1,0,0.5,-->,16.898876,6.841282,8.643207
1,0,0.5,0.5,1,0,1,-->,12.061689,12.084044,0.303216
1,0,0.5,0.5,1,0.5,0,-->,22.001289,-11.663778,17.375502
1,0,0.5,0.5,1,0.5,0.5,-->,17.062927,-1.962754,8.926063
1,0,0.5,0.5,1,0.5,1,-->,11.869549,7.123379,-3.519234
1,0,0.5,0.5,1,1,0,-->,18.320312,-16.379484,11.093938
1,0,0.5,0.5,1,1,0.5,-->,12.923427,-4.408668,1.788982
1,0,0.5,0.5,1,1,1,-->,11.869549,2.412787,-4.227311
1,0,0.5,1,0,0,0,-->,13.564578,-7.172245,-2.762687
1,0,0.5,1,0,0,0.5,-->,11.869549,2.480211,-2.904921
1,0,0.5,1,0,0,1,-->,11.869549,6.841495,-1.456257
1,0,0.5,1,0,0.5,0,-->,13.672625,-7.637962,0.516886
1,0,0.5,1,0,0.5,0.5,-->,11.879478,0.091127,-5.501573
1,0,0.5,1,0,0.5,1,-->,11.869549,5.500896,-4.353867
1,0,0.5,1,0,1,0,-->,13.592133,-7.291018,2.941916
1,0,0.5,1,0,1,0.5,-->,11.915163,-0.062704,-2.316865
1,0,0.5,1,0,1,1,-->,11.869549,3.946901,-3.054580
1,0,0.5,1,0.5,0,0,-->,11.869549,0.133928,-0.028065
1,0,0.5,1,0.5,0,0.5,-->,11.869549,0.133928,-3.881689
1,0,0.5,1,0.5,0,1,-->,11.869549,6.013732,-3.832801
1,0,0.5,1,0.5,0.5,0,-->,11.881408,0.082798,-3.587129
1,0,0.5,1,0.5,0.5,0.5,-->,11.870387,0.130295,-5.828089
1,0,0.5,1,0.5,0.5,1,-->,11.869549,5.398089,-4.656331
1,0,0.5,1,0.5,1,0,-->,11.924577,-0.103286,-1.280379
1,0,0.5,1,0.5,1,0.5,-->,11.870040,0.131800,-2.798208
1,0,0.5,1,0.5,1,1,-->,11.869549,3.838075,-3.069498
1,0,0.5,1,1,0,0,-->,15.326874,-6.096515,5.932857
1,0,0.5,1,1,0,0.5,-->,13.229546,-2.911145,2.316758
1,0,0.5,1,1,0,1,-->,11.869549,5.014203,-0.028065
1,0,0.5,1,1,0.5,0,-->,13.502895,-5.066792,2.788070
1,0,0.5,1,1,0.5,0.5,-->,12.806268,-3.408904,1.586985
1,0,0.5,1,1,0.5,1,-->,11.869549,4.336624,-0.028065
1,0,0.5,1,1,1,0,-->,11.869549,0.133928,-0.028065
1,0,0.5,1,1,1,0.5,-->,11.869549,0.133928,-0.028065
1,0,0.5,1,1,1,1,-->,11.869549,0.242891,-2.052065
1,0,1,0,0,0,0,-->,67.268585,-89.922310,36.603519
1,0,1,0,0,0,0.5,-->,42.890617,-46.544651,9.863898
1,0,1,0,0,0,1,-->,22.497976,-1.251828,-16.742744
1,0,1,0,0,0.5,0,-->,62.054710,-97.350075,33.916592
1,0,1,0,0,0.5,0.5,-->,39.734451,-58.187206,11.564140
1,0,1,0,0,0.5,1,-->,21.949371,-12.554838,-11.208950
1,0,1,0,0,1,0,-->,57.974827,-103.363174,30.958649
1,0,1,0,0,1,0.5,-->,37.892857,-60.289913,10.858730
1,0,1,0,0,1,1,-->,22.178650,-20.751127,-7.898781
1,0,1,0,0.5,0,0,-->,50.053959,-39.325146,39.110016
1,0,1,0,0.5,0,0.5,-->,31.978834,-17.048355,18.190741
1,0,1,0,0.5,0,1,-->,17.981222,8.630135,-1.656027
1,0,1,0,0.5,0.5,0,-->,44.777210,-52.340992,34.501274
1,0,1,0,0.5,0.5,0.5,-->,30.198406,-31.158556,16.274261
1,0,1,0,0.5,0.5,1,-->,13.341568,0.491412,-13.824821
1,0,1,0,0.5,1,0,-->,40.766499,-61.426289,29.657461
1,0,1,0,0.5,1,0.5,-->,33.960014,-58.179417,15.301011
1,0,1,0,0.5,1,1,-->,12.853508,-4.107298,-10.476107
1,0,1,0,1,0,0,-->,39.215973,-2.779338,45.601040
1,0,1,0,1,0,0.5,-->,26.142227,6.483964,23.902624
1,0,1,0,1,0,1,-->,16.414526,15.194267,7.808102
1,0,1,0,1,0.5,0,-->,33.566525,-14.730662,34.963634
1,0,1,0,1,0.5,0.5,-->,23.660686,-1.525922,20.301483
1,0,1,0,1,0.5,1,-->,11.913257,8.845401,-0.384015
1,0,1,0,1,1,0,-->,29.351866,-26.158480,29.737593
1,0,1,0,1,1,0.5,-->,17.987316,-16.709444,10.519804
1,0,1,0,1,1,1,-->,11.869549,1.395019,-5.732053
1,0,1,0.5,0,0,0,-->,44.833733,-62.032463,23.645288
1,0,1,0.5,0,0,0.5,-->,28.325441,-29.895800,6.184434
1,0,1,0.5,0,0,1,-->,15.465466,3.717591,-9.861899
1,0,1,0.5,0,0.5,0,-->,41.477516,-66.181358,22.629116
1,0,1,0.5,0,0.5,0.5,-->,26.254120,-40.285797,6.746561
1,0,1,0.5,0,0.5,1,-->,15.164145,-4.630682,-7.278205
1,0,1,0.5,0,1,0,-->,38.516262,-70.685890,21.923615
1,0,1,0.5,0,1,0.5,-->,27.116268,-39.344070,8.634466
1,0,1,0.5,0,1,1,-->,16.848227,-13.882936,-5.795601
1,0,1,0.5,0.5,0,0,-->,34.620014,-26.970177,27.102995
1,0,1,0.5,0.5,0,0.5,-->,24.374111,-17.468582,13.758051
1,0,1,0.5,0.5,0,1,-->,14.441948,5.377357,-1.861801
1,0,1,0.5,0.5,0.5,0,-->,32.191162,-43.718311,25.245640
1,0,1,0.5,0.5,0.5,0.5,-->,25.560240,-29.117123,11.794119
1,0,1,0.5,0.5,0.5,1,-->,12.097254,2.184024,-8.887206
1,0,1,0.5,0.5,1,0,-->,31.467918,-48.283127,22.019020
1,0,1,0.5,0.5,1,0.5,-->,24.989082,-40.700779,10.539851
1,0,1,0.5,0.5,1,1,-->,12.121526,-0.952191,-7.129178
1,0,1,0.5,1,0,0,-->,28.407585,-3.728428,28.485817
1,0,1,0.5,1,0,0.5,-->,18.392036,5.307137,11.217613
1,0,1,0.5,1,0,1,-->,12.953509,10.632308,1.840842
1,0,1,0.5,1,0.5,0,-->,23.567438,-13.541592,20.140705
1,0,1,0.5,1,0.5,0.5,-->,18.898701,-2.230799,12.091171
1,0,1,0.5,1,0.5,1,-->,11.869549,5.291087,-0.943178
1,0,1,0.5,1,1,0,-->,21.619932,-17.303793,16.782948
1,0,1,0.5,1,1,0.5,-->,14.179106,-9.821067,3.953938
1,0,1,0.5,1,1,1,-->,11.869549,1.020238,-4.531530
1,0,1,1,0,0,0,-->,14.155809,-9.720654,3.913752
1,0,1,1,0,0,0.5,-->,11.869549,0.440921,-0.559832
1,0,1,1,0,0,1,-->,11.869549,7.635470,-0.056792
1,0,1,1,0,0.5,0,-->,15.079175,-13.700689,5.505791
1,0,1,1,0,0.5,0.5,-->,12.194305,-1.265902,0.531857
1,0,1,1,0,0.5,1,-->,11.869549,3.828257,-0.877396
1,0,1,1,0,1,0,-->,14.369289,-10.640827,4.281816
1,0,1,1,0,1,0.5,-->,12.140419,-1.033621,0.438945
1,0,1,1,0,1,1,-->,11.869549,0.133928,-1.816850
1,0,1,1,0.5,0,0,-->,11.870677,0.129064,-0.026120
1,0,1,1,0.5,0,0.5,-->,11.904505,-0.016757,0.032215
1,0,1,1,0.5,0,1,-->,11.869549,4.323355,-0.582577
1,0,1,1,0.5,0.5,0,-->,12.085828,-0.798337,0.344847
1,0,1,1,0.5,0.5,0.5,-->,11.916197,-0.067158,0.052384
1,0,1,1,0.5,0.5,1,-->,11.869549,3.640045,-1.043629
1,0,1,1,0.5,1,0,-->,12.054941,-0.665200,0.291574
1,0,1,1,0.5,1,0.5,-->,11.906970,-0.027381,0.036455
1,0,1,1,0.5,1,1,-->,11.869549,0.133928,-1.919832
1,0,1,1,1,0,0,-->,18.054657,-4.929438,10.635910
1,0,1,1,1,0,0.5,-->,13.862846,-2.578671,3.408683
1,0,1,1,1,0,1,-->,11.869549,0.988912,-1.139984
1,0,1,1,1,0.5,0,-->,13.990132,-4.270530,3.628129
1,0,1,1,1,0.5,0.5,-->,13.079567,-2.881788,2.058160
1,0,1,1,1,0.5,1,-->,11.869549,0.647432,-1.545628
1,0,1,1,1,1,0,-->,11.869549,0.133928,-0.028065
1,0,1,1,1,1,0.5,-->,11.869549,0.133928,-0.877457
1,0,1,1,1,1,1,-->,11.869549,0.248636,-2.034897
1,0.5,0,0,0,0,0,-->,54.908573,-16.275766,-61.296238
1,0.5,0,0,0,0,0.5,-->,35.646309,13.662706,-63.268559
1,0.5,0,0,0,0,1,-->,19.354055,46.449871,-69.514137
1,0.5,0,0,0,0.5,0,-->,48.918362,-35.853546,-44.970345
1,0.5,0,0,0,0.5,0.5,-->,31.931274,-3.857135,-48.733471
1,0.5,0,0,0,0.5,1,-->,17.985374,28.675184,-55.701309
1,0.5,0,0,0,1,0,-->,43.604984,-52.128429,-33.115959
1,0.5,0,0,0,1,0.5,-->,28.445366,-16.050993,-38.835724
1,0.5,0,0,0,1,1,-->,17.767429,15.732455,-45.563103
1,0.5,0,0,0.5,0,0,-->,39.476158,-2.550704,-24.783350
1,0.5,0,0,0.5,0,0.5,-->,25.042135,14.934969,-30.385868
1,0.5,0,0,0.5,0,1,-->,14.367682,30.566616,-36.477768
1,0.5,0,0,0.5,0.5,0,-->,33.815407,-18.487309,-18.193773
1,0.5,0,0,0.5,0.5,0.5,-->,24.124250,1.567195,-24.314083
1,0.5,0,0,0.5,0.5,1,-->,14.120781,27.663906,-30.191948
1,0.5,0,0,0.5,1,0,-->,28.522221,-32.304749,-15.214915
1,0.5,0,0,0.5,1,0.5,-->,23.520512,-10.913204,-15.144961
1,0.5,0,0,0.5,1,1,-->,13.284676,12.145858,-37.267414
1,0.5,0,0,1,0,0,-->,29.788721,13.097160,16.498783
1,0.5,0,0,1,0,0.5,-->,19.257334,17.089804,3.025025
1,0.5,0,0,1,0,1,-->,12.938944,22.556236,-5.234599
1,0.5,0,0,1,0.5,0,-->,23.280022,1.336198,9.455147
1,0.5,0,0,1,0.5,0.5,-->,14.548109,9.305420,-4.569939
1,0.5,0,0,1,0.5,1,-->,11.869549,14.301665,-10.454021
1,0.5,0,0,1,1,0,-->,18.771343,-10.151368,4.419110
1,0.5,0,0,1,1,0.5,-->,14.461274,-5.761008,-2.415454
1,0.5,0,0,1,1,1,-->,11.869549,7.404564,-9.431322
1,0.5,0,0.5,0,0,0,-->,36.502850,-11.511193,-40.590237
1,0.5,0,0.5,0,0,0.5,-->,24.176516,9.672100,-41.016846
1,0.5,0,0.5,0,0,1,-->,13.667830,31.200848,-43.981159
1,0.5,0,0.5,0,0.5,0,-->,32.551876,-24.118036,-29.681675
1,0.5,0,0.5,0,0.5,0.5,-->,21.351547,-3.464479,-33.340080
1,0.5,0,0.5,0,0.5,1,-->,13.676226,24.115490,-33.269760
1,0.5,0,0.5,0,1,0,-->,28.036386,-34.016331,-22.454294
1,0.5,0,0.5,0,1,0.5,-->,21.635048,-10.652371,-21.381832
1,0.5,0,0.5,0,1,1,-->,14.421540,12.287804,-23.725950
1,0.5,0,0.5,0.5,0,0,-->,28.418648,-2.985469,-12.075356
1,0.5,0,0.5,0.5,0,0.5,-->,20.061888,10.631229,-16.229103
1,0.5,0,0.5,0.5,0,1,-->,13.143599,27.496487,-20.062635
1,0.5,0,0.5,0.5,0.5,0,-->,25.518639,-11.232516,-8.788382
1,0.5,0,0.5,0.5,0.5,0.5,-->,16.990526,1.365958,-12.922369
1,0.5,0,0.5,0.5,0.5,1,-->,12.089403,22.636730,-28.283979
1,0.5,0,0.5,0.5,1,0,-->,24.446619,-21.615353,-2.862318
1,0.5,0,0.5,0.5,1,0.5,-->,22.478510,-20.211046,-11.622178
1,0.5,0,0.5,0.5,1,1,-->,11.999059,9.294491,-23.918121
1,0.5,0,0.5,1,0,0,-->,22.671314,6.564794,16.790501
1,0.5,0,0.5,1,0,0.5,-->,13.488499,14.303261,-0.766472
1,0.5,0,0.5,1,0,1,-->,11.869549,12.841190,-2.264116
1,0.5,0,0.5,1,0.5,0,-->,16.375109,-1.017365,5.338934
1,0.5,0,0.5,1,0.5,0.5,-->,15.046388,4.296224,2.336396
1,0.5,0,0.5,1,0.5,1,-->,11.869549,9.719172,-5.897253
1,0.5,0,0.5,1,1,0,-->,13.033358,-3.741515,1.147896
1,0.5,0,0.5,1,1,0.5,-->,12.216711,-1.362470,-1.261889
1,0.5,0,0.5,1,1,1,-->,11.869549,4.615149,-6.460892
1,0.5,0,1,0,0,0,-->,12.240838,3.619146,-6.828021
1,0.5,0,1,0,0,0.5,-->,11.877784,10.034981,-6.106037
1,0.5,0,1,0,0,1,-->,11.869549,11.642097,-5.290943
1,0.5,0,1,0,0.5,0,-->,11.869549,0.133928,-5.055796
1,0.5,0,1,0,0.5,0.5,-->,11.872727,0.120203,-7.226118
1,0.5,0,1,0,0.5,1,-->,11.869549,6.817313,-5.721216
1,0.5,0,1,0,1,0,-->,11.869549,0.133928,-3.871977
1,0.5,0,1,0,1,0.5,-->,11.869549,0.133928,-4.158329
1,0.5,0,1,0,1,1,-->,11.869549,4.821356,-3.990265
1,0.5,0,1,0.5,0,0,-->,11.869549,1.390642,-0.028065
1,0.5,0,1,0.5,0,0.5,-->,11.869549,0.133928,-4.780812
1,0.5,0,1,0.5,0,1,-->,11.869549,6.697954,-4.544062
1,0.5,0,1,0.5,0.5,0,-->,11.873497,0.116920,-4.977512
1,0.5,0,1,0.5,0.5,0.5,-->,11.870041,0.131769,-6.406129
1,0.5,0,1,0.5,0.5,1,-->,11.869549,5.733793,-5.032823
1,0.5,0,1,0.5,1,0,-->,11.869623,0.133608,-2.687862
1,0.5,0,1,0.5,1,0.5,-->,11.869549,0.133928,-3.317138
1,0.5,0,1,0.5,1,1,-->,11.869549,4.079256,-3.321295
1,0.5,0,1,1,0,0,-->,15.269956,-3.242070,5.834701
1,0.5,0,1,1,0,0.5,-->,13.218470,-2.135873,2.297668
1,0.5,0,1,1,0,1,-->,11.869549,5.259260,-0.028065
1,0.5,0,1,1,0.5,0,-->,13.396473,-3.103050,2.604570
1,0.5,0,1,1,0.5,0.5,-->,12.829696,-2.856823,1.627354
1,0.5,0,1,1,0.5,1,-->,11.869549,4.530231,-0.104897
1,0.5,0,1,1,1,0,-->,11.869549,0.133928,-0.028065
1,0.5,0,1,1,1,0.5,-->,11.869549,0.133928,-0.028065
1,0.5,0,1,1,1,1,-->,11.869549,0.403303,-2.224978
1,0.5,0.5,0,0,0,0,-->,50.955318,-37.049122,-21.540413
1,0.5,0.5,0,0,0,0.5,-->,33.142807,-7.285136,-30.731344
1,0.5,0.5,0,0,0,1,-->,17.588766,26.757807,-42.968506
1,0.5,0.5,0,0,0.5,0,-->,45.886063,-52.131775,-13.041394
1,0.5,0.5,0,0,0.5,0.5,-->,31.038403,-19.764084,-24.073988
1,0.5,0.5,0,0,0.5,1,-->,16.831667,20.791079,-35.103672
1,0.5,0.5,0,0,1,0,-->,41.232975,-63.439072,-8.005342
1,0.5,0.5,0,0,1,0.5,-->,30.124115,-28.891834,-14.974092
1,0.5,0.5,0,0,1,1,-->,17.260832,7.423730,-27.232698
1,0.5,0.5,0,0.5,0,0,-->,38.159233,-11.588474,1.798846
1,0.5,0.5,0,0.5,0,0.5,-->,29.010311,7.182777,-3.599972
1,0.5,0.5,0,0.5,0,1,-->,15.993059,30.560156,-18.507576
1,0.5,0.5,0,0.5,0.5,0,-->,37.188332,-21.957197,7.067902
1,0.5,0.5,0,0.5,0.5,0.5,-->,24.421940,-4.534897,-1.655168
1,0.5,0.5,0,0.5,0.5,1,-->,14.082151,32.932491,-47.255959
1,0.5,0.5,0,0.5,1,0,-->,34.414276,-37.540222,9.155784
1,0.5,0.5,0,0.5,1,0.5,-->,34.264370,-39.774738,-16.275347
1,0.5,0.5,0,0.5,1,1,-->,13.090226,11.400292,-36.084011
1,0.5,0.5,0,1,0,0,-->,30.336851,12.415370,27.812418
1,0.5,0.5,0,1,0,0.5,-->,19.493019,21.950472,8.993274
1,0.5,0.5,0,1,0,1,-->,13.073792,22.148077,-0.807046
1,0.5,0.5,0,1,0.5,0,-->,24.975519,1.830354,17.258270
1,0.5,0.5,0,1,0.5,0.5,-->,20.766493,7.574339,5.560401
1,0.5,0.5,0,1,0.5,1,-->,11.869549,13.989383,-10.113134
1,0.5,0.5,0,1,1,0,-->,20.802586,-9.634109,10.947874
1,0.5,0.5,0,1,1,0.5,-->,14.703814,-5.842377,-1.483296
1,0.5,0.5,0,1,1,1,-->,11.869549,7.216246,-9.334632
1,0.5,0.5,0.5,0,0,0,-->,34.466949,-25.253338,-13.495074
1,0.5,0.5,0.5,0,0,0.5,-->,23.823790,-1.289164,-17.418850
1,0.5,0.5,0.5,0,0,1,-->,14.148940,25.923889,-23.222994
1,0.5,0.5,0.5,0,0.5,0,-->,31.107986,-29.690071,-7.108735
1,0.5,0.5,0.5,0,0.5,0.5,-->,20.379433,-9.968537,-13.736499
1,0.5,0.5,0.5,0,0.5,1,-->,13.063081,20.041182,-18.373093
1,0.5,0.5,0.5,0,1,0,-->,29.515003,-36.313011,-0.438215
1,0.5,0.5,0.5,0,1,0.5,-->,21.484423,-14.158337,-5.335697
1,0.5,0.5,0.5,0,1,1,-->,12.668614,8.105702,-21.597395
1,0.5,0.5,0.5,0.5,0,0,-->,30.711544,-5.350333,9.048462
1,0.5,0.5,0.5,0.5,0,0.5,-->,20.098595,5.950716,-0.274475
1,0.5,0.5,0.5,0.5,0,1,-->,12.853546,24.831858,-9.705356
1,0.5,0.5,0.5,0.5,0.5,0,-->,25.548115,-13.831547,7.548956
1,0.5,0.5,0.5,0.5,0.5,0.5,-->,24.207273,-9.524136,-12.130469
1,0.5,0.5,0.5,0.5,0.5,1,-->,12.044736,23.562590,-31.270590
1,0.5,0.5,0.5,0.5,1,0,-->,24.868364,-22.213015,9.109988
1,0.5,0.5,0.5,0.5,1,0.5,-->,25.002245,-26.983932,-10.329556
1,0.5,0.5,0.5,0.5,1,1,-->,11.924015,8.799013,-23.562649
1,0.5,0.5,0.5,1,0,0,-->,21.573540,10.240200,16.551630
1,0.5,0.5,0.5,1,0,0.5,-->,13.457733,13.884341,0.266677
1,0.5,0.5,0.5,1,0,1,-->,11.869549,12.576922,-3.637834
1,0.5,0.5,0.5,1,0.5,0,-->,15.989442,0.264625,6.529288
1,0.5,0.5,0.5,1,0.5,0.5,-->,16.683950,3.938861,5.009689
1,0.5,0.5,0.5,1,0.5,1,-->,11.869549,9.495348,-5.930030
1,0.5,0.5,0.5,1,1,0,-->,15.988806,-5.883171,4.799211
1,0.5,0.5,0.5,1,1,0.5,-->,12.505945,-2.609168,-0.796612
1,0.5,0.5,0.5,1,1,1,-->,11.869549,4.530961,-6.408827
1,0.5,0.5,1,0,0,0,-->,12.438560,-2.240816,0.477855
1,0.5,0.5,1,0,0,0.5,-->,11.869549,0.133928,-5.936832
1,0.5,0.5,1,0,0,1,-->,11.869549,6.530048,-4.944774
1,0.5,0.5,1,0,0.5,0,-->,11.874189,0.113895,-5.843760
1,0.5,0.5,1,0,0.5,0.5,-->,11.869930,0.132256,-6.647698
1,0.5,0.5,1,0,0.5,1,-->,11.869549,5.664683,-5.066967
1,0.5,0.5,1,0,1,0,-->,11.890727,0.042611,-2.890520
1,0.5,0.5,1,0,1,0.5,-->,11.870266,0.130812,-3.325285
1,0.5,0.5,1,0,1,1,-->,11.869549,4.022000,-3.302213
1,0.5,0.5,1,0.5,0,0,-->,11.872040,0.123182,-4.394502
1,0.5,0.5,1,0.5,0,0.5,-->,11.869549,0.133928,-6.304720
1,0.5,0.5,1,0.5,0,1,-->,11.869549,5.679411,-4.986510
1,0.5,0.5,1,0.5,0.5,0,-->,11.869960,0.132134,-6.356177
1,0.5,0.5,1,0.5,0.5,0.5,-->,11.869611,0.133654,-6.749259
1,0.5,0.5,1,0.5,0.5,1,-->,11.869549,5.552057,-5.041516
1,0.5,0.5,1,0.5,1,0,-->,11.871636,0.124914,-3.143245
1,0.5,0.5,1,0.5,1,0.5,-->,11.869638,0.133532,-3.325878
1,0.5,0.5,1,0.5,1,1,-->,11.869549,4.004066,-3.260643
1,0.5,0.5,1,1,0,0,-->,13.770101,-2.788480,3.248742
1,0.5,0.5,1,1,0,0.5,-->,12.889158,-2.823636,1.729887
1,0.5,0.5,1,1,0,1,-->,11.869549,4.505092,-0.107603
1,0.5,0.5,1,1,0.5,0,-->,13.150694,-2.830415,2.180802
1,0.5,0.5,1,1,0.5,0.5,-->,12.772470,-2.873026,1.528696
1,0.5,0.5,1,1,0.5,1,-->,11.869549,4.446727,-0.144734
1,0.5,0.5,1,1,1,0,-->,11.869549,0.133928,-0.028065
1,0.5,0.5,1,1,1,0.5,-->,11.869549,0.133928,-0.028065
1,0.5,0.5,1,1,1,1,-->,11.869549,0.403637,-2.219423
1,0.5,1,0,0,0,0,-->,48.692062,-49.509232,17.972618
1,0.5,1,0,0,0,0.5,-->,30.913343,-20.329296,-0.478387
1,0.5,1,0,0,0,1,-->,17.698212,12.022000,-17.969410
1,0.5,1,0,0,0.5,0,-->,43.834827,-60.788189,16.293457
1,0.5,1,0,0,0.5,0.5,-->,28.640568,-34.695034,0.274702
1,0.5,1,0,0,0.5,1,-->,16.359781,1.732076,-15.730335
1,0.5,1,0,0,1,0,-->,40.533840,-69.414246,13.962708
1,0.5,1,0,0,1,0.5,-->,29.120211,-38.351578,1.498541
1,0.5,1,0,0,1,1,-->,13.364890,-6.311522,-14.096780
1,0.5,1,0,0.5,0,0,-->,37.649944,-13.080897,26.042152
1,0.5,1,0,0.5,0,0.5,-->,27.365864,-4.042406,13.120156
1,0.5,1,0,0.5,0,1,-->,16.049751,15.097647,-5.150031
1,0.5,1,0,0.5,0.5,0,-->,35.760128,-32.409283,25.049023
1,0.5,1,0,0.5,0.5,0.5,-->,36.396252,-38.914139,13.653207
1,0.5,1,0,0.5,0.5,1,-->,12.799640,6.890224,-17.751759
1,0.5,1,0,0.5,1,0,-->,34.217197,-44.711800,20.396978
1,0.5,1,0,0.5,1,0.5,-->,32.909252,-50.660507,10.554762
1,0.5,1,0,0.5,1,1,-->,12.031281,-0.563198,-14.598163
1,0.5,1,0,1,0,0,-->,31.687841,10.726908,34.141418
1,0.5,1,0,1,0,0.5,-->,21.147293,21.006618,15.968042
1,0.5,1,0,1,0,1,-->,11.947304,15.089059,-3.621882
1,0.5,1,0,1,0.5,0,-->,26.966345,-0.288610,24.827707
1,0.5,1,0,1,0.5,0.5,-->,22.930754,4.881393,17.059116
1,0.5,1,0,1,0.5,1,-->,11.878642,13.050179,-4.721733
1,0.5,1,0,1,1,0,-->,22.912083,-9.168460,12.683316
1,0.5,1,0,1,1,0.5,-->,17.475817,-9.264184,7.289475
1,0.5,1,0,1,1,1,-->,11.869549,3.662449,-8.288648
1,0.5,1,0.5,0,0,0,-->,32.945972,-33.001198,11.871558
1,0.5,1,0.5,0,0,0.5,-->,22.025333,-15.810731,1.617186
1,0.5,1,0.5,0,0,1,-->,13.621550,6.409123,-8.843068
1,0.5,1,0.5,0,0.5,0,-->,29.180611,-41.938206,12.038886
1,0.5,1,0.5,0,0.5,0.5,-->,18.551756,-27.257450,-0.126024
1,0.5,1,0.5,0,0.5,1,-->,12.427592,4.316545,-11.341875
1,0.5,1,0.5,0,1,0,-->,28.678885,-44.012573,11.664242
1,0.5,1,0.5,0,1,0.5,-->,23.911493,-33.934799,5.245170
1,0.5,1,0.5,0,1,1,-->,12.010108,-0.471942,-9.785303
1,0.5,1,0.5,0.5,0,0,-->,29.515480,-16.354939,22.343599
1,0.5,1,0.5,0.5,0,0.5,-->,18.656094,-7.363944,7.668452
1,0.5,1,0.5,0.5,0,1,-->,12.328072,8.709277,-8.156931
1,0.5,1,0.5,0.5,0.5,0,-->,24.096758,-25.983994,15.533285
1,0.5,1,0.5,0.5,0.5,0.5,-->,26.019018,-27.370121,8.824381
1,0.5,1,0.5,0.5,0.5,1,-->,11.902462,5.680307,-11.526468
1,0.5,1,0.5,0.5,1,0,-->,26.739252,-34.112572,11.740025
1,0.5,1,0.5,0.5,1,0.5,-->,24.426540,-36.011898,7.324768
1,0.5,1,0.5,0.5,1,1,-->,11.889152,0.049420,-9.575068
1,0.5,1,0.5,1,0,0,-->,22.976082,9.011285,19.121159
1,0.5,1,0.5,1,0,0.5,-->,18.698128,6.866117,11.745359
1,0.5,1,0.5,1,0,1,-->,11.869549,8.632871,-2.784498
1,0.5,1,0.5,1,0.5,0,-->,21.769115,0.664227,17.040163
1,0.5,1,0.5,1,0.5,0.5,-->,18.789337,2.099821,11.902641
1,0.5,1,0.5,1,0.5,1,-->,11.869549,7.549488,-3.407353
1,0.5,1,0.5,1,1,0,-->,17.506168,-6.470741,7.711557
1,0.5,1,0.5,1,1,0.5,-->,13.766627,-6.441034,3.242769
1,0.5,1,0.5,1,1,1,-->,11.869549,2.572698,-6.210470
1,0.5,1,1,0,0,0,-->,13.724819,-5.790258,3.170679
1,0.5,1,1,0,0,0.5,-->,12.000305,-0.429673,0.197384
1,0.5,1,1,0,0,1,-->,11.869549,4.465573,-1.196411
1,0.5,1,1,0,0.5,0,-->,12.087982,-0.807601,0.348555
1,0.5,1,1,0,0.5,0.5,-->,11.909836,-0.039723,0.041410
1,0.5,1,1,0,0.5,1,-->,11.869549,3.788176,-1.270819
1,0.5,1,1,0,1,0,-->,11.941248,-0.175148,0.095550
1,0.5,1,1,0,1,0.5,-->,11.884588,0.069088,-0.002151
1,0.5,1,1,0,1,1,-->,11.869549,0.163004,-2.099707
1,0.5,1,1,0.5,0,0,-->,12.015288,-0.494270,0.223223
1,0.5,1,1,0.5,0,0.5,-->,11.888770,0.051077,0.005084
1,0.5,1,1,0.5,0,1,-->,11.869549,3.820383,-1.259503
1,0.5,1,1,0.5,0.5,0,-->,11.900090,0.002272,0.024600
1,0.5,1,1,0.5,0.5,0.5,-->,11.876171,0.105384,-0.016636
1,0.5,1,1,0.5,0.5,1,-->,11.869549,3.752230,-1.276823
1,0.5,1,1,0.5,1,0,-->,11.879999,0.088877,-0.010039
1,0.5,1,1,0.5,1,0.5,-->,11.872038,0.123182,-0.023779
1,0.5,1,1,0.5,1,1,-->,11.869549,0.203905,-2.097282
1,0.5,1,1,1,0,0,-->,13.911522,-2.288815,3.492598
1,0.5,1,1,1,0,0.5,-->,13.037792,-2.382153,1.986161
1,0.5,1,1,1,0,1,-->,11.869549,0.785729,-1.743331
1,0.5,1,1,1,0.5,0,-->,13.298387,-2.327960,2.435449
1,0.5,1,1,1,0.5,0.5,-->,12.924175,-2.391668,1.790274
1,0.5,1,1,1,0.5,1,-->,11.869549,0.780440,-1.754822
1,0.5,1,1,1,1,0,-->,11.869549,0.133928,-1.038127
1,0.5,1,1,1,1,0.5,-->,11.869549,0.133928,-1.171713
1,0.5,1,1,1,1,1,-->,11.869549,0.409398,-2.203266
1,1,0,0,0,0,0,-->,33.083736,27.662371,-60.556644
1,1,0,0,0,0,0.5,-->,23.492060,35.165085,-57.258648
1,1,0,0,0,0,1,-->,15.897953,45.049206,-58.395607
1,1,0,0,0,0.5,0,-->,29.165789,7.406981,-48.887157
1,1,0,0,0,0.5,0.5,-->,19.864029,18.903339,-48.036186
1,1,0,0,0,0.5,1,-->,14.405316,31.784756,-48.267776
1,1,0,0,0,1,0,-->,25.388027,-7.734143,-42.596451
1,1,0,0,0,1,0.5,-->,18.823576,9.906912,-40.696964
1,1,0,0,0,1,1,-->,13.711635,23.213373,-42.395481
1,1,0,0,0.5,0,0,-->,28.757786,20.582516,-20.367630
1,1,0,0,0.5,0,0.5,-->,19.381557,24.866755,-24.811613
1,1,0,0,0.5,0,1,-->,13.385598,30.135933,-28.178846
1,1,0,0,0.5,0.5,0,-->,22.823681,6.430433,-19.929110
1,1,0,0,0.5,0.5,0.5,-->,16.610525,15.023657,-23.722826
1,1,0,0,0.5,0.5,1,-->,11.881498,29.453321,-39.819889
1,1,0,0,0.5,1,0,-->,18.374201,-5.711071,-20.144148
1,1,0,0,0.5,1,0.5,-->,15.140918,1.654636,-31.302166
1,1,0,0,0.5,1,1,-->,11.869549,15.684730,-31.450684
1,1,0,0,1,0,0,-->,26.133915,21.523739,12.534137
1,1,0,0,1,0,0.5,-->,18.764410,21.389820,2.184434
1,1,0,0,1,0,1,-->,12.839977,24.707043,-5.302258
1,1,0,0,1,0.5,0,-->,20.515074,9.293929,5.112694
1,1,0,0,1,0.5,0.5,-->,15.806152,18.126965,-1.361961
1,1,0,0,1,0.5,1,-->,11.869549,15.805153,-10.076147
1,1,0,0,1,1,0,-->,15.201762,-1.132993,-1.193660
1,1,0,0,1,1,0.5,-->,11.869549,4.261600,-8.612473
1,1,0,0,1,1,1,-->,11.869549,6.299142,-12.043735
1,1,0,0.5,0,0,0,-->,23.404957,17.877380,-39.055756
1,1,0,0.5,0,0,0.5,-->,17.428122,22.090807,-35.478992
1,1,0,0.5,0,0,1,-->,12.292580,29.986736,-35.829174
1,1,0,0.5,0,0.5,0,-->,19.906582,4.355653,-31.977823
1,1,0,0.5,0,0.5,0.5,-->,13.642611,13.292911,-32.529037
1,1,0,0.5,0,0.5,1,-->,12.062792,23.707224,-28.879255
1,1,0,0.5,0,1,0,-->,16.704494,-4.548804,-28.061586
1,1,0,0.5,0,1,0.5,-->,12.973001,7.808376,-26.426891
1,1,0,0.5,0,1,1,-->,11.960107,15.496807,-28.203735
1,1,0,0.5,0.5,0,0,-->,21.965179,12.744980,-9.401889
1,1,0,0.5,0.5,0,0.5,-->,14.240752,21.656004,-16.993038
1,1,0,0.5,0.5,0,1,-->,12.152354,25.732895,-18.433039
1,1,0,0.5,0.5,0.5,0,-->,17.056936,7.221733,-13.022357
1,1,0,0.5,0.5,0.5,0.5,-->,14.482734,13.764632,-20.875639
1,1,0,0.5,0.5,0.5,1,-->,11.869549,19.278015,-24.363958
1,1,0,0.5,0.5,1,0,-->,14.945248,-1.150502,-12.723564
1,1,0,0.5,0.5,1,0.5,-->,12.344131,1.717667,-21.030647
1,1,0,0.5,0.5,1,1,-->,11.869549,9.451317,-19.501541
1,1,0,0.5,1,0,0,-->,21.388493,11.491290,15.021028
1,1,0,0.5,1,0,0.5,-->,14.607416,12.132057,2.912415
1,1,0,0.5,1,0,1,-->,11.869549,15.722515,-4.083292
1,1,0,0.5,1,0.5,0,-->,16.400322,1.731909,5.860555
1,1,0,0.5,1,0.5,0.5,-->,14.116214,11.155753,1.928997
1,1,0,0.5,1,0.5,1,-->,11.869549,9.585692,-6.725389
1,1,0,0.5,1,1,0,-->,12.494696,-0.430692,-1.592282
1,1,0,0.5,1,1,0.5,-->,11.869549,2.671416,-5.758895
1,1,0,0.5,1,1,1,-->,11.869549,4.403713,-8.489246
1,1,0,1,0,0,0,-->,11.869549,11.072021,-1.101500
1,1,0,1,0,0,0.5,-->,11.869549,11.611531,-3.027822
1,1,0,1,0,0,1,-->,11.869549,11.820155,-3.986009
1,1,0,1,0,0.5,0,-->,11.869549,2.245110,-2.050058
1,1,0,1,0,0.5,0.5,-->,11.869549,5.848046,-2.585624
1,1,0,1,0,0.5,1,-->,11.869549,6.948664,-3.862584
1,1,0,1,0,1,0,-->,11.869549,0.545825,-4.544161
1,1,0,1,0,1,0.5,-->,11.869549,1.111858,-4.180513
1,1,0,1,0,1,1,-->,11.869549,1.843137,-3.719750
1,1,0,1,0.5,0,0,-->,12.790804,3.389684,1.560341
1,1,0,1,0.5,0,0.5,-->,11.869549,6.022335,-0.088254
1,1,0,1,0.5,0,1,-->,11.869549,6.828804,-2.827854
1,1,0,1,0.5,0.5,0,-->,11.869549,4.899191,-0.313734
1,1,0,1,0.5,0.5,0.5,-->,11.869549,5.104775,-1.551981
1,1,0,1,0.5,0.5,1,-->,11.869549,5.885983,-3.163923
1,1,0,1,0.5,1,0,-->,11.869549,0.541114,-3.028293
1,1,0,1,0.5,1,0.5,-->,11.869549,0.601439,-3.416435
1,1,0,1,0.5,1,1,-->,11.869549,1.262178,-3.098095
1,1,0,1,1,0,0,-->,17.675659,2.289248,9.982467
1,1,0,1,1,0,0.5,-->,13.595107,2.495425,2.947053
1,1,0,1,1,0,1,-->,11.869549,1.686692,-1.607625
1,1,0,1,1,0.5,0,-->,13.636951,1.743430,3.019174
1,1,0,1,1,0.5,0.5,-->,12.863461,1.838911,1.685582
1,1,0,1,1,0.5,1,-->,11.869549,1.181866,-1.962405
1,1,0,1,1,1,0,-->,11.869549,0.528711,-1.298671
1,1,0,1,1,1,0.5,-->,11.869549,0.552133,-1.782241
1,1,0,1,1,1,1,-->,11.869549,0.585739,-2.392428
1,1,0.5,0,0,0,0,-->,32.576843,8.258530,-29.955160
1,1,0.5,0,0,0,0.5,-->,21.711283,19.883368,-33.306999
1,1,0.5,0,0,0,1,-->,14.759171,31.012606,-36.554585
1,1,0.5,0,0,0.5,0,-->,27.610497,-7.531667,-24.992552
1,1,0.5,0,0,0.5,0.5,-->,18.718632,7.732274,-30.517097
1,1,0.5,0,0,0.5,1,-->,13.410586,24.499922,-32.811157
1,1,0.5,0,0,1,0,-->,24.073399,-20.278257,-22.042442
1,1,0.5,0,0,1,0.5,-->,17.514774,-0.961082,-25.763498
1,1,0.5,0,0,1,1,-->,11.869549,15.796262,-31.612564
1,1,0.5,0,0.5,0,0,-->,28.190540,15.055271,-2.428799
1,1,0.5,0,0.5,0,0.5,-->,19.331305,26.336714,-11.792401
1,1,0.5,0,0.5,0,1,-->,13.673769,30.975672,-18.769382
1,1,0.5,0,0.5,0.5,0,-->,23.852373,7.770287,-5.895201
1,1,0.5,0,0.5,0.5,0.5,-->,19.539240,19.164978,-33.293625
1,1,0.5,0,0.5,0.5,1,-->,11.871002,28.677647,-37.906681
1,1,0.5,0,0.5,1,0,-->,20.606779,-6.615171,-7.621479
1,1,0.5,0,0.5,1,0.5,-->,15.275177,0.737730,-28.820284
1,1,0.5,0,0.5,1,1,-->,11.869549,14.747640,-30.356016
1,1,0.5,0,1,0,0,-->,26.555937,21.415825,21.694305
1,1,0.5,0,1,0,0.5,-->,18.724401,23.758629,7.651049
1,1,0.5,0,1,0,1,-->,11.869549,17.317623,-9.517707
1,1,0.5,0,1,0.5,0,-->,21.600107,11.192869,11.533195
1,1,0.5,0,1,0.5,0.5,-->,15.900623,18.432287,-0.262315
1,1,0.5,0,1,0.5,1,-->,11.869549,14.772734,-10.240275
1,1,0.5,0,1,1,0,-->,15.233792,5.028536,-3.568411
1,1,0.5,0,1,1,0.5,-->,11.869549,5.163475,-8.837550
1,1,0.5,0,1,1,1,-->,11.869549,6.289430,-11.957594
1,1,0.5,0.5,0,0,0,-->,22.938974,5.358176,-17.311188
1,1,0.5,0.5,0,0,0.5,-->,15.459208,16.587395,-20.877775
1,1,0.5,0.5,0,0,1,-->,12.302072,25.676157,-21.609470
1,1,0.5,0.5,0,0.5,0,-->,19.092083,-1.120226,-15.669835
1,1,0.5,0.5,0,0.5,0.5,-->,13.249542,7.028338,-19.185041
1,1,0.5,0.5,0,0.5,1,-->,11.874008,18.720615,-23.326788
1,1,0.5,0.5,0,1,0,-->,16.733009,-7.865282,-13.765385
1,1,0.5,0.5,0,1,0.5,-->,13.129409,0.138655,-19.637262
1,1,0.5,0.5,0,1,1,-->,11.869549,9.318962,-19.655251
1,1,0.5,0.5,0.5,0,0,-->,21.391186,14.886971,0.004446
1,1,0.5,0.5,0.5,0,0.5,-->,13.797359,19.082067,-8.619146
1,1,0.5,0.5,0.5,0,1,-->,11.874244,21.052855,-19.107943
1,1,0.5,0.5,0.5,0.5,0,-->,16.580137,6.265902,-4.330141
1,1,0.5,0.5,0.5,0.5,0.5,-->,15.035566,14.517615,-21.693720
1,1,0.5,0.5,0.5,0.5,1,-->,11.869549,18.420477,-23.770180
1,1,0.5,0.5,0.5,1,0,-->,15.515094,-1.266791,-12.560986
1,1,0.5,0.5,0.5,1,0.5,-->,12.391524,1.276800,-20.359543
1,1,0.5,0.5,0.5,1,1,-->,11.869549,8.922628,-18.735313
1,1,0.5,0.5,1,0,0,-->,20.626011,13.094424,14.629223
1,1,0.5,0.5,1,0,0.5,-->,15.521767,13.841920,5.445890
1,1,0.5,0.5,1,0,1,-->,11.869549,10.262922,-6.352081
1,1,0.5,0.5,1,0.5,0,-->,17.990324,9.092616,7.869264
1,1,0.5,0.5,1,0.5,0.5,-->,14.256008,12.020359,2.295039
1,1,0.5,0.5,1,0.5,1,-->,11.869549,9.030102,-6.837893
1,1,0.5,0.5,1,1,0,-->,12.492519,3.609282,-3.314038
1,1,0.5,0.5,1,1,0.5,-->,11.869549,3.156133,-5.921542
1,1,0.5,0.5,1,1,1,-->,11.869549,4.393697,-8.433815
1,1,0.5,1,0,0,0,-->,12.747169,5.276298,1.485074
1,1,0.5,1,0,0,0.5,-->,11.869549,6.104517,-1.205288
1,1,0.5,1,0,0,1,-->,11.869549,6.653450,-3.146763
1,1,0.5,1,0,0.5,0,-->,11.869549,4.598764,-1.060994
1,1,0.5,1,0,0.5,0.5,-->,11.869549,5.049298,-1.740664
1,1,0.5,1,0,0.5,1,-->,11.869549,5.817176,-3.179282
1,1,0.5,1,0,1,0,-->,11.869549,0.133928,-3.221809
1,1,0.5,1,0,1,0.5,-->,11.869549,0.490592,-3.431474
1,1,0.5,1,0,1,1,-->,11.869549,1.211747,-3.083459
1,1,0.5,1,0.5,0,0,-->,11.869549,5.581498,-0.028065
1,1,0.5,1,0.5,0,0.5,-->,11.869549,5.191547,-1.441696
1,1,0.5,1,0.5,0,1,-->,11.869549,5.818392,-3.117961
1,1,0.5,1,0.5,0.5,0,-->,11.869549,5.213358,-1.424384
1,1,0.5,1,0.5,0.5,0.5,-->,11.869549,5.045817,-1.766951
1,1,0.5,1,0.5,0.5,1,-->,11.869549,5.707180,-3.133008
1,1,0.5,1,0.5,1,0,-->,11.869549,0.593703,-3.315208
1,1,0.5,1,0.5,1,0.5,-->,11.869549,0.566800,-3.395232
1,1,0.5,1,0.5,1,1,-->,11.869549,1.213313,-3.045088
1,1,0.5,1,1,0,0,-->,13.826781,1.878262,3.346488
1,1,0.5,1,1,0,0.5,-->,12.857726,1.826737,1.675702
1,1,0.5,1,1,0,1,-->,11.869549,1.153945,-1.974116
1,1,0.5,1,1,0.5,0,-->,13.104086,1.841130,2.100444
1,1,0.5,1,1,0.5,0.5,-->,12.710426,1.793663,1.421724
1,1,0.5,1,1,0.5,1,-->,11.869549,1.131693,-1.992758
1,1,0.5,1,1,1,0,-->,11.869549,0.629892,-1.719370
1,1,0.5,1,1,1,0.5,-->,11.869549,0.566998,-1.833994
1,1,0.5,1,1,1,1,-->,11.869549,0.585739,-2.387192
1,1,1,0,0,0,0,-->,31.182177,-2.805238,0.356216
1,1,1,0,0,0,0.5,-->,21.750265,10.455436,-9.746948
1,1,1,0,0,0,1,-->,14.750591,22.628021,-19.249987
1,1,1,0,0,0.5,0,-->,27.500042,-16.381088,-1.974473
1,1,1,0,0,0.5,0.5,-->,19.239565,-1.139392,-10.143510
1,1,1,0,0,0.5,1,-->,11.869549,16.843744,-18.886408
1,1,1,0,0,1,0,-->,24.190144,-27.844458,-5.863070
1,1,1,0,0,1,0.5,-->,15.986520,-13.898849,-11.490097
1,1,1,0,0,1,1,-->,11.869549,5.866559,-13.623963
1,1,1,0,0.5,0,0,-->,28.634995,12.720129,16.336821
1,1,1,0,0.5,0,0.5,-->,20.004061,17.098574,2.878505
1,1,1,0,0.5,0,1,-->,11.869549,18.256325,-17.451399
1,1,1,0,0.5,0.5,0,-->,24.193298,0.119792,8.212492
1,1,1,0,0.5,0.5,0.5,-->,18.829428,4.511734,-5.817237
1,1,1,0,0.5,0.5,1,-->,11.869549,15.661840,-17.790539
1,1,1,0,0.5,1,0,-->,20.288353,-10.487544,-5.841533
1,1,1,0,0.5,1,0.5,-->,14.499424,-10.239668,-11.898810
1,1,1,0,0.5,1,1,-->,11.869549,6.037960,-12.809348
1,1,1,0,1,0,0,-->,27.234051,21.504271,26.462456
1,1,1,0,1,0,0.5,-->,17.932796,18.872545,9.431512
1,1,1,0,1,0,1,-->,11.869549,8.111813,-11.098330
1,1,1,0,1,0.5,0,-->,22.141581,17.209724,12.334009
1,1,1,0,1,0.5,0.5,-->,16.444206,18.580812,6.083739
1,1,1,0,1,0.5,1,-->,11.869549,7.199025,-11.450967
1,1,1,0,1,1,0,-->,15.271529,11.723792,-6.178233
1,1,1,0,1,1,0.5,-->,11.869549,11.202855,-11.251188
1,1,1,0,1,1,1,-->,11.869549,6.278380,-11.855546
1,1,1,0.5,0,0,0,-->,22.557135,-2.479283,2.620180
1,1,1,0.5,0,0,0.5,-->,14.892648,5.345059,-7.040430
1,1,1,0.5,0,0,1,-->,12.282162,15.415841,-13.381651
1,1,1,0.5,0,0.5,0,-->,18.536825,-12.459547,-1.578382
1,1,1,0.5,0,0.5,0.5,-->,15.569835,0.080396,-5.081718
1,1,1,0.5,0,0.5,1,-->,11.869549,9.824988,-12.126829
1,1,1,0.5,0,1,0,-->,18.442028,-18.684387,-4.179631
1,1,1,0.5,0,1,0.5,-->,13.139549,-5.340218,-8.489071
1,1,1,0.5,0,1,1,-->,11.869549,4.067279,-9.346343
1,1,1,0.5,0.5,0,0,-->,21.100252,6.242024,9.523802
1,1,1,0.5,0.5,0,0.5,-->,16.058952,7.160814,-0.191639
1,1,1,0.5,0.5,0,1,-->,11.869549,10.658770,-11.343904
1,1,1,0.5,0.5,0.5,0,-->,18.888641,1.147196,2.734569
1,1,1,0.5,0.5,0.5,0.5,-->,15.278171,3.077949,-3.518703
1,1,1,0.5,0.5,0.5,1,-->,11.869549,9.264473,-11.536523
1,1,1,0.5,0.5,1,0,-->,15.773689,-6.956181,-4.684153
1,1,1,0.5,0.5,1,0.5,-->,12.416445,-2.223397,-8.606348
1,1,1,0.5,0.5,1,1,-->,11.869549,4.213799,-8.895467
1,1,1,0.5,1,0,0,-->,20.534908,13.868837,14.912231
1,1,1,0.5,1,0,0.5,-->,14.214559,13.521962,4.015055
1,1,1,0.5,1,0,1,-->,11.869549,5.546555,-7.792660
1,1,1,0.5,1,0.5,0,-->,17.144382,11.427089,7.465467
1,1,1,0.5,1,0.5,0.5,-->,13.286381,12.893916,2.414748
1,1,1,0.5,1,0.5,1,-->,11.869549,4.991845,-8.058988
1,1,1,0.5,1,1,0,-->,12.489953,8.034342,-5.210319
1,1,1,0.5,1,1,0.5,-->,11.869549,6.581619,-7.581482
1,1,1,0.5,1,1,1,-->,11.869549,4.385672,-8.369415
1,1,1,1,0,0,0,-->,13.705698,1.051092,3.137712
1,1,1,1,0,0,0.5,-->,11.952227,1.547421,0.114503
1,1,1,1,0,0,1,-->,11.869549,1.625104,-2.293033
1,1,1,1,0,0.5,0,-->,11.983647,0.221855,0.168673
1,1,1,1,0,0.5,0.5,-->,11.883677,0.816401,-0.003701
1,1,1,1,0,0.5,1,-->,11.869549,1.120963,-2.339952
1,1,1,1,0,1,0,-->,11.869549,0.133928,-1.731218
1,1,1,1,0,1,0.5,-->,11.869549,0.133928,-2.026842
1,1,1,1,0,1,1,-->,11.869549,0.511597,-2.392428
1,1,1,1,0.5,0,0,-->,11.987810,1.097571,0.175847
1,1,1,1,0.5,0,0.5,-->,11.880650,0.953209,-0.008899
1,1,1,1,0.5,0,1,-->,11.869549,1.140904,-2.336647
1,1,1,1,0.5,0.5,0,-->,11.883681,0.949698,-0.003671
1,1,1,1,0.5,0.5,0.5,-->,11.871804,0.891379,-0.024159
1,1,1,1,0.5,0.5,1,-->,11.869549,1.103301,-2.339246
1,1,1,1,0.5,1,0,-->,11.869549,0.133928,-1.946339
1,1,1,1,0.5,1,0.5,-->,11.869549,0.133928,-2.051282
1,1,1,1,0.5,1,1,-->,11.869549,0.542922,-2.387192
1,1,1,1,1,0,0,-->,11.869549,0.892610,-0.137013
1,1,1,1,1,0,0.5,-->,11.869549,0.747655,-1.160587
1,1,1,1,1,0,1,-->,11.869549,0.580054,-2.381963
1,1,1,1,1,0.5,0,-->,11.869549,0.821417,-1.092251
1,1,1,1,1,0.5,0.5,-->,11.869549,0.743643,-1.280630
1,1,1,1,1,0.5,1,-->,11.869549,0.580054,-2.381955
1,1,1,1,1,1,0,-->,11.869549,0.745056,-2.193242
1,1,1,1,1,1,0.5,-->,11.869549,0.671614,-2.273745
1,1,1,1,1,1,1,-->,11.869549,0.585739,-2.381963
-0.1,0.5,0.5,0.5,0.5,0.5,0.5,-->,29.341646,22.340559,21.491259
1.1,0.5,0.5,0.5,0.5,0.5,0.5,-->,24.207273,-9.524136,-12.130469
0.5,-0.1,0.5,0.5,0.5,0.5,0.5,-->,30.457571,-3.087996,15.985659
0.5,1.1,0.5,0.5,0.5,0.5,0.5,-->,22.160992,32.612061,1.493677
0.5,0.5,-0.1,0.5,0.5,0.5,0.5,-->,22.450899,13.507888,-3.300161
0.5,0.5,1.1,0.5,0.5,0.5,0.5,-->,35.213490,4.339177,32.533634
0.5,0.5,0.5,-0.1,0.5,0.5,0.5,-->,34.715366,17.120642,16.518679
0.5,0.5,0.5,1.1,0.5,0.5,0.5,-->,13.826208,0.224044,-1.342970
0.5,0.5,0.5,0.5,-0.1,0.5,0.5,-->,26.986807,1.392861,-2.240573
0.5,0.5,0.5,0.5,1.1,0.5,0.5,-->,29.003693,24.809546,29.513571
0.5,0.5,0.5,0.5,0.5,-0.1,0.5,-->,28.527174,27.748840,14.918342
0.5,0.5,0.5,0.5,0.5,1.1,0.5,-->,25.994560,-22.804430,2.947388
0.5,0.5,0.5,0.5,0.5,0.5,-0.1,-->,35.299736,3.978516,24.823574
0.5,0.5,0.5,0.5,0.5,0.5,1.1,-->,12.427771,25.510576,-18.851131
