0,0,0,0,0,0,0,-->,117.823181,3.616745,-14.695910
0,0,0,0,0,0,0.5,-->,75.539925,20.712194,-36.731255
0,0,0,0,0,0,1,-->,29.812515,57.454720,-72.107750
0,0,0,0,0,0.5,0,-->,96.032936,-36.805958,-10.182967
0,0,0,0,0,0.5,0.5,-->,60.881130,-9.412292,-29.372393
0,0,0,0,0,0.5,1,-->,26.502666,31.965776,-55.883533
0,0,0,0,0,1,0,-->,75.625732,-89.469162,-4.953703
0,0,0,0,0,1,0.5,-->,48.605007,-43.940006,-21.349930
0,0,0,0,0,1,1,-->,24.483925,8.417665,-40.873981
0,0,0,0,0.5,0,0,-->,95.428383,43.504829,32.443928
0,0,0,0,0.5,0,0.5,-->,61.583473,41.388298,6.862743
0,0,0,0,0.5,0,1,-->,28.861233,44.583927,-24.370562
0,0,0,0,0.5,0.5,0,-->,73.841362,8.168217,22.532404
0,0,0,0,0.5,0.5,0.5,-->,47.228321,15.415339,1.917217
0,0,0,0,0.5,0.5,1,-->,23.874409,26.025967,-19.674812
0,0,0,0,0.5,1,0,-->,53.811825,-40.874893,11.519758
0,0,0,0,0.5,1,0.5,-->,35.079037,-15.411912,-2.799181
0,0,0,0,0.5,1,1,-->,20.457964,8.971478,-15.841684
0,0,0,0,1,0,0,-->,81.654953,71.457787,104.138237
0,0,0,0,1,0,0.5,-->,54.411064,55.678040,59.857346
0,0,0,0,1,0,1,-->,29.680487,41.661350,20.557846
0,0,0,0,1,0.5,0,-->,60.231560,41.458305,69.420380
0,0,0,0,1,0.5,0.5,-->,39.933090,32.878441,36.875099
0,0,0,0,1,0.5,1,-->,23.441345,25.815578,11.559200
0,0,0,0,1,1,0,-->,39.362438,1.192414,37.240047
0,0,0,0,1,1,0.5,-->,27.473549,6.406373,17.218115
0,0,0,0,1,1,1,-->,18.998659,10.967557,4.982452
0,0,0,0.5,0,0,0,-->,78.901154,1.670033,-10.630857
0,0,0,0.5,0,0,0.5,-->,50.226955,14.558136,-25.582546
0,0,0,0.5,0,0,1,-->,22.476936,35.440765,-44.824810
0,0,0,0.5,0,0.5,0,-->,64.212021,-25.855036,-7.259009
0,0,0,0.5,0,0.5,0.5,-->,41.399441,-4.671067,-19.631479
0,0,0,0.5,0,0.5,1,-->,20.702074,20.460648,-33.598999
0,0,0,0.5,0,1,0,-->,50.730251,-58.793392,-3.608286
0,0,0,0.5,0,1,0.5,-->,33.557392,-24.485886,-13.955626
0,0,0,0.5,0,1,1,-->,19.536053,7.970916,-23.685854
0,0,0,0.5,0.5,0,0,-->,64.128044,28.212551,22.804226
0,0,0,0.5,0.5,0,0.5,-->,42.147106,26.834639,4.550081
0,0,0,0.5,0.5,0,1,-->,21.988733,27.862909,-13.745375
0,0,0,0.5,0.5,0.5,0,-->,50.148849,3.886956,15.016969
0,0,0,0.5,0.5,0.5,0.5,-->,33.348827,9.979609,1.390900
0,0,0,0.5,0.5,0.5,1,-->,19.360582,16.786123,-10.446415
0,0,0,0.5,0.5,1,0,-->,37.018497,-26.550961,8.127193
0,0,0,0.5,0.5,1,0.5,-->,25.940599,-7.583443,-1.061443
0,0,0,0.5,0.5,1,1,-->,17.648632,7.923814,-7.606720
0,0,0,0.5,1,0,0,-->,55.312763,46.196896,64.601189
0,0,0,0.5,1,0,0.5,-->,37.501228,35.755859,34.378662
0,0,0,0.5,1,0,1,-->,22.337503,25.935181,10.627080
0,0,0,0.5,1,0.5,0,-->,41.522141,24.747957,41.135368
0,0,0,0.5,1,0.5,0.5,-->,28.922075,20.278273,20.414276
0,0,0,0.5,1,0.5,1,-->,19.147894,16.282103,6.152455
0,0,0,0.5,1,1,0,-->,28.394541,-1.249191,21.298944
0,0,0,0.5,1,1,0.5,-->,21.768085,4.502112,9.318673
0,0,0,0.5,1,1,1,-->,16.993036,8.504118,3.103772
0,0,0,1,0,0,0,-->,22.579218,0.602792,-2.495235
0,0,0,1,0,0,0.5,-->,19.061857,6.909617,-4.694245
0,0,0,1,0,0,1,-->,16.358128,11.159173,-5.282674
0,0,0,1,0,0.5,0,-->,21.285814,-4.982414,-1.571983
0,0,0,1,0,0.5,0.5,-->,15.041674,2.350592,-3.580745
0,0,0,1,0,0.5,1,-->,15.208988,7.332003,-1.685871
0,0,0,1,0,1,0,-->,19.155329,-8.717850,-0.834747
0,0,0,1,0,1,0.5,-->,15.172670,3.138639,-1.993001
0,0,0,1,0,1,1,-->,15.646946,7.643708,-2.419657
0,0,0,1,0.5,0,0,-->,24.170321,3.269276,8.916442
0,0,0,1,0.5,0,0.5,-->,15.794661,7.598870,2.117132
0,0,0,1,0.5,0,1,-->,15.461440,7.211458,1.512190
0,0,0,1,0.5,0.5,0,-->,17.984623,-1.229599,5.425645
0,0,0,1,0.5,0.5,0.5,-->,13.961740,4.252618,1.873748
0,0,0,1,0.5,0.5,1,-->,15.247275,5.661309,3.341214
0,0,0,1,0.5,1,0,-->,16.076281,-4.120294,2.718458
0,0,0,1,0.5,1,0.5,-->,14.114082,5.958559,0.885162
0,0,0,1,0.5,1,1,-->,15.224870,6.919254,2.166484
0,0,0,1,1,0,0,-->,24.533213,4.510062,16.147392
0,0,0,1,1,0,0.5,-->,17.776253,5.560143,4.024889
0,0,0,1,1,0,1,-->,16.564091,9.758978,2.886591
0,0,0,1,1,0.5,0,-->,19.166552,-0.436148,6.319601
0,0,0,1,1,0.5,0.5,-->,15.842713,1.725054,0.446742
0,0,0,1,1,0.5,1,-->,15.466788,6.357370,1.307578
0,0,0,1,1,1,0,-->,18.239946,-3.976631,6.043599
0,0,0,1,1,1,0.5,-->,16.256826,1.774862,1.492233
0,0,0,1,1,1,1,-->,15.587091,6.689837,1.972877
0,0,0.5,0,0,0,0,-->,113.770294,-2.436695,42.672417
0,0,0.5,0,0,0,0.5,-->,73.282204,12.703213,9.655928
0,0,0.5,0,0,0,1,-->,31.210133,40.367901,-32.718494
0,0,0.5,0,0,0.5,0,-->,93.194405,-40.577408,35.405731
0,0,0.5,0,0,0.5,0.5,-->,59.395702,-15.460846,7.415903
0,0,0.5,0,0,0.5,1,-->,27.236975,18.257664,-24.913834
0,0,0.5,0,0,1,0,-->,74.744476,-88.569221,29.183142
0,0,0.5,0,0,1,0.5,-->,48.127789,-47.579407,5.923905
0,0,0.5,0,0,1,1,-->,24.833776,-2.104669,-17.904434
0,0,0.5,0,0.5,0,0,-->,94.193237,41.053871,70.618065
0,0,0.5,0,0.5,0,0.5,-->,61.718349,39.195332,36.825321
0,0,0.5,0,0.5,0,1,-->,31.310854,40.878532,1.384410
0,0,0.5,0,0.5,0.5,0,-->,73.690369,6.737441,52.567253
0,0,0.5,0,0.5,0.5,0.5,-->,47.772049,13.995173,24.505470
0,0,0.5,0,0.5,0.5,1,-->,25.751144,22.236551,-0.222022
0,0,0.5,0,0.5,1,0,-->,55.348873,-38.251553,35.162804
0,0,0.5,0,0.5,1,0.5,-->,36.509453,-15.731810,14.813452
0,0,0.5,0,0.5,1,1,-->,21.253933,5.429415,-2.255240
0,0,0.5,0,1,0,0,-->,82.637329,68.878197,109.771393
0,0,0.5,0,1,0,0.5,-->,55.905445,55.170341,65.163910
0,0,0.5,0,1,0,1,-->,32.512554,43.852619,27.657446
0,0,0.5,0,1,0.5,0,-->,62.149662,39.026802,75.184052
0,0,0.5,0,1,0.5,0.5,-->,42.057774,32.415764,41.960014
0,0,0.5,0,1,0.5,1,-->,25.319723,27.417786,17.692482
0,0,0.5,0,1,1,0,-->,43.431026,1.349391,45.792171
0,0,0.5,0,1,1,0.5,-->,29.831739,7.063342,24.064344
0,0,0.5,0,1,1,1,-->,15.764827,12.666278,15.047702
0,0,0.5,0.5,0,0,0,-->,75.280128,-2.836882,25.754356
0,0,0.5,0.5,0,0,0.5,-->,48.832615,8.841069,4.149461
0,0,0.5,0.5,0,0,1,-->,23.258766,25.736179,-19.390026
0,0,0.5,0.5,0,0.5,0,-->,62.197639,-28.474989,21.877972
0,0,0.5,0.5,0,0.5,0.5,-->,40.387070,-8.766813,3.393529
0,0,0.5,0.5,0,0.5,1,-->,21.075552,12.841434,-14.172510
0,0,0.5,0.5,0,1,0,-->,50.310169,-58.657627,19.213615
0,0,0.5,0.5,0,1,0.5,-->,33.356106,-27.065416,3.525778
0,0,0.5,0.5,0,1,1,-->,19.422081,2.385778,-9.716117
0,0,0.5,0.5,0.5,0,0,-->,63.252235,26.225487,44.917824
0,0,0.5,0.5,0.5,0,0.5,-->,42.087166,25.344343,21.544518
0,0,0.5,0.5,0.5,0,1,-->,23.300003,26.017775,1.034373
0,0,0.5,0.5,0.5,0.5,0,-->,49.981956,2.962587,32.389378
0,0,0.5,0.5,0.5,0.5,0.5,-->,37.152885,7.156392,18.677525
0,0,0.5,0.5,0.5,0.5,1,-->,20.054924,16.120277,-1.172526
0,0,0.5,0.5,0.5,1,0,-->,38.105400,-25.209862,22.339739
0,0,0.5,0.5,0.5,1,0.5,-->,29.449945,-14.576314,13.087280
0,0,0.5,0.5,0.5,1,1,-->,18.793980,5.931656,-0.883095
0,0,0.5,0.5,1,0,0,-->,56.042015,44.753078,67.866707
0,0,0.5,0.5,1,0,0.5,-->,38.497952,35.678436,37.407799
0,0,0.5,0.5,1,0,1,-->,23.658419,27.875828,15.171453
0,0,0.5,0.5,1,0.5,0,-->,42.821648,23.574490,44.597225
0,0,0.5,0.5,1,0.5,0.5,-->,32.337841,21.238604,28.624828
0,0,0.5,0.5,1,0.5,1,-->,21.117317,14.638631,10.008518
0,0,0.5,0.5,1,1,0,-->,30.828735,-0.923062,26.311104
0,0,0.5,0.5,1,1,0.5,-->,22.256586,6.384349,11.789270
0,0,0.5,0.5,1,1,1,-->,16.974216,8.582653,6.325042
0,0,0.5,1,0,0,0,-->,22.080397,-1.522016,1.783510
0,0,0.5,1,0,0,0.5,-->,16.065037,4.252314,-0.447000
0,0,0.5,1,0,0,1,-->,15.352744,7.560493,-0.588573
0,0,0.5,1,0,0.5,0,-->,20.735905,-6.801620,2.635698
0,0,0.5,1,0,0.5,0.5,-->,14.227125,1.476259,0.308718
0,0,0.5,1,0,0.5,1,-->,15.082674,6.178613,1.602184
0,0,0.5,1,0,1,0,-->,19.665129,-10.678711,3.883734
0,0,0.5,1,0,1,0.5,-->,15.081737,2.453460,0.906973
0,0,0.5,1,0,1,1,-->,14.294465,7.629633,0.630531
0,0,0.5,1,0.5,0,0,-->,23.456808,3.254852,10.633539
0,0,0.5,1,0.5,0,0.5,-->,15.077548,7.345196,4.609798
0,0,0.5,1,0.5,0,1,-->,15.359315,6.406525,4.031287
0,0,0.5,1,0.5,0.5,0,-->,17.387291,-1.375731,8.205758
0,0,0.5,1,0.5,0.5,0.5,-->,17.938972,0.987301,-0.156301
0,0,0.5,1,0.5,0.5,1,-->,15.520580,5.895300,-2.350706
0,0,0.5,1,0.5,1,0,-->,15.939577,-4.089493,5.331593
0,0,0.5,1,0.5,1,0.5,-->,16.632177,-3.311051,-0.339725
0,0,0.5,1,0.5,1,1,-->,15.150600,4.494802,-1.855820
0,0,0.5,1,1,0,0,-->,24.732122,5.590724,16.825474
0,0,0.5,1,1,0,0.5,-->,17.724203,6.078010,3.951643
0,0,0.5,1,1,0,1,-->,15.158826,8.719840,3.505715
0,0,0.5,1,1,0.5,0,-->,19.002773,-0.151574,6.043082
0,0,0.5,1,1,0.5,0.5,-->,19.331722,2.453445,6.476471
0,0,0.5,1,1,0.5,1,-->,15.622018,5.542147,0.690415
0,0,0.5,1,1,1,0,-->,17.149015,-4.157988,4.052794
0,0,0.5,1,1,1,0.5,-->,16.594900,-1.917689,2.224910
0,0,0.5,1,1,1,1,-->,15.213935,3.765909,-0.004552
0,0,1,0,0,0,0,-->,110.515961,-3.183241,108.011383
0,0,1,0,0,0,0.5,-->,71.812057,10.315132,61.504101
0,0,1,0,0,0,1,-->,34.009205,31.548058,10.821857
0,0,1,0,0,0.5,0,-->,91.254471,-39.485870,83.791939
0,0,1,0,0,0.5,0.5,-->,58.603107,-16.812654,45.471256
0,0,1,0,0,0.5,1,-->,29.194460,10.529455,7.163763
0,0,1,0,0,1,0,-->,74.891663,-83.639236,63.384529
0,0,1,0,0,1,0.5,-->,48.334278,-46.904987,32.701008
0,0,1,0,0,1,1,-->,26.341101,-9.190248,4.957723
0,0,1,0,0.5,0,0,-->,93.504166,40.585812,108.415169
0,0,1,0,0.5,0,0.5,-->,62.044544,39.030010,65.267860
0,0,1,0,0.5,0,1,-->,34.326965,40.905708,25.314919
0,0,1,0,0.5,0.5,0,-->,74.088104,7.174038,79.982689
0,0,1,0,0.5,0.5,0.5,-->,48.812099,14.051198,45.906925
0,0,1,0,0.5,0.5,1,-->,27.679522,22.143471,16.909708
0,0,1,0,0.5,1,0,-->,57.554581,-34.050907,56.308228
0,0,1,0,0.5,1,0.5,-->,38.522736,-15.657706,31.430660
0,0,1,0,0.5,1,1,-->,23.538692,4.676006,10.082584
0,0,1,0,1,0,0,-->,83.728645,66.226334,114.182831
0,0,1,0,1,0,0.5,-->,57.273079,54.499512,69.318428
0,0,1,0,1,0,1,-->,35.491421,45.908703,34.328808
0,0,1,0,1,0.5,0,-->,64.219902,36.552967,80.108009
0,0,1,0,1,0.5,0.5,-->,44.447964,32.836555,48.546234
0,0,1,0,1,0.5,1,-->,28.034056,28.715416,22.145964
0,0,1,0,1,1,0,-->,47.414303,1.323857,53.415733
0,0,1,0,1,1,0.5,-->,33.137016,7.201199,28.784101
0,0,1,0,1,1,1,-->,23.049238,12.364848,13.803375
0,0,1,0.5,0,0,0,-->,72.676857,-4.242115,68.352928
0,0,1,0.5,0,0,0.5,-->,47.684349,6.537496,36.495850
0,0,1,0.5,0,0,1,-->,24.664484,20.496504,5.754115
0,0,1,0.5,0,0.5,0,-->,60.734100,-28.696980,52.758793
0,0,1,0.5,0,0.5,0.5,-->,39.757015,-10.477139,26.682541
0,0,1,0.5,0,0.5,1,-->,21.716213,8.359863,4.087554
0,0,1,0.5,0,1,0,-->,50.556087,-56.150970,40.573730
0,0,1,0.5,0,1,0.5,-->,33.781353,-28.968962,20.335028
0,0,1,0.5,0,1,1,-->,20.478989,-1.637910,2.858518
0,0,1,0.5,0.5,0,0,-->,62.591026,25.559443,67.784416
0,0,1,0.5,0.5,0,0.5,-->,42.143467,25.068523,38.151905
0,0,1,0.5,0.5,0,1,-->,24.564507,26.320496,14.104014
0,0,1,0.5,0.5,0.5,0,-->,50.150604,2.860220,48.953907
0,0,1,0.5,0.5,0.5,0.5,-->,37.077927,6.453733,31.759083
0,0,1,0.5,0.5,0.5,1,-->,21.708309,12.103589,9.118850
0,0,1,0.5,0.5,1,0,-->,39.531139,-23.098694,34.585266
0,0,1,0.5,0.5,1,0.5,-->,30.569601,-13.720045,20.110565
0,0,1,0.5,0.5,1,1,-->,20.277010,3.005160,5.339937
0,0,1,0.5,1,0,0,-->,56.815125,43.259911,70.457603
0,0,1,0.5,1,0,0.5,-->,39.620960,36.197945,41.290703
0,0,1,0.5,1,0,1,-->,25.592739,29.513708,18.355028
0,0,1,0.5,1,0.5,0,-->,44.154583,22.284929,47.598640
0,0,1,0.5,1,0.5,0.5,-->,33.954678,21.191820,31.219694
0,0,1,0.5,1,0.5,1,-->,23.237614,19.773129,13.961112
0,0,1,0.5,1,1,0,-->,33.173344,-0.769679,30.729567
0,0,1,0.5,1,1,0.5,-->,27.228642,3.169311,20.088816
0,0,1,0.5,1,1,1,-->,19.680050,7.506368,7.255809
0,0,1,1,0,0,0,-->,21.820505,-3.362911,5.861452
0,0,1,1,0,0,0.5,-->,16.179832,2.719841,0.550492
0,0,1,1,0,0,1,-->,16.467272,9.080729,1.363344
0,0,1,1,0,0.5,0,-->,21.405104,-8.155883,5.543743
0,0,1,1,0,0.5,0.5,-->,14.671497,-0.481168,-1.230898
0,0,1,1,0,0.5,1,-->,14.395356,6.967724,1.394776
0,0,1,1,0,1,0,-->,20.408701,-12.184769,6.946323
0,0,1,1,0,1,0.5,-->,15.130876,-1.485933,2.473416
0,0,1,1,0,1,1,-->,15.743762,5.628417,1.241416
0,0,1,1,0.5,0,0,-->,24.192318,3.349513,11.836464
0,0,1,1,0.5,0,0.5,-->,15.679661,7.342931,1.083102
0,0,1,1,0.5,0,1,-->,14.921163,8.948117,3.080685
0,0,1,1,0.5,0.5,0,-->,18.024961,-1.677321,4.643419
0,0,1,1,0.5,0.5,0.5,-->,17.971960,-0.762452,2.096553
0,0,1,1,0.5,0.5,1,-->,15.486418,5.337095,0.028065
0,0,1,1,0.5,1,0,-->,16.773613,-4.949227,4.569171
0,0,1,1,0.5,1,0.5,-->,17.360950,-5.506953,2.719886
0,0,1,1,0.5,1,1,-->,15.308337,3.256980,-0.353115
0,0,1,1,1,0,0,-->,25.110615,6.552695,17.656246
0,0,1,1,1,0,0.5,-->,17.826321,8.443595,6.242540
0,0,1,1,1,0,1,-->,16.984816,10.310010,4.283214
0,0,1,1,1,0.5,0,-->,19.440880,0.787493,6.590876
0,0,1,1,1,0.5,0.5,-->,19.771883,3.605968,7.582957
0,0,1,1,1,0.5,1,-->,16.003319,5.893461,1.361277
0,0,1,1,1,1,0,-->,18.951128,-3.268136,7.523376
0,0,1,1,1,1,0.5,-->,17.181187,-1.682504,3.368147
0,0,1,1,1,1,1,-->,14.793173,0.455862,-2.239645
0,0.5,0,0,0,0,0,-->,88.195618,44.977509,-17.434187
0,0.5,0,0,0,0,0.5,-->,57.634281,45.665867,-32.696659
0,0.5,0,0,0,0,1,-->,27.741007,54.279732,-53.114120
0,0.5,0,0,0,0.5,0,-->,69.431122,4.743521,-16.967541
0,0.5,0,0,0,0.5,0.5,-->,45.202415,16.455694,-28.782749
0,0.5,0,0,0,0.5,1,-->,23.511841,33.206226,-42.989861
0,0.5,0,0,0,1,0,-->,52.328777,-49.292549,-16.273691
0,0.5,0,0,0,1,0.5,-->,34.793762,-17.133934,-24.877197
0,0.5,0,0,0,1,1,-->,20.695019,14.075835,-33.891895
0,0.5,0,0,0.5,0,0,-->,75.514214,67.149231,28.285629
0,0.5,0,0,0.5,0,0.5,-->,50.293648,55.810455,7.815778
0,0.5,0,0,0.5,0,1,-->,27.907900,46.200390,-13.100443
0,0.5,0,0,0.5,0.5,0,-->,56.494720,32.455086,15.675975
0,0.5,0,0,0.5,0.5,0.5,-->,37.936108,29.535246,0.901821
0,0.5,0,0,0.5,0.5,1,-->,22.595629,28.395761,-12.355333
0,0.5,0,0,0.5,1,0,-->,38.524559,-15.154256,2.124048
0,0.5,0,0,0.5,1,0.5,-->,26.623735,0.710554,-6.497097
0,0.5,0,0,0.5,1,1,-->,18.196234,13.256371,-12.603612
0,0.5,0,0,1,0,0,-->,68.711945,80.421631,83.725311
0,0.5,0,0,1,0,0.5,-->,47.257462,61.854275,48.376884
0,0.5,0,0,1,0,1,-->,29.119959,45.537663,19.907169
0,0.5,0,0,1,0.5,0,-->,49.605415,50.354633,52.336361
0,0.5,0,0,1,0.5,0.5,-->,34.453270,38.834911,27.646852
0,0.5,0,0,1,0.5,1,-->,22.445131,29.234711,10.966326
0,0.5,0,0,1,1,0,-->,30.962246,11.190240,23.477245
0,0.5,0,0,1,1,0.5,-->,22.669153,13.102160,10.381507
0,0.5,0,0,1,1,1,-->,13.803071,15.889508,6.083238
0,0.5,0,0.5,0,0,0,-->,59.304066,28.306057,-12.403674
0,0.5,0,0.5,0,0,0.5,-->,39.398052,29.398224,-21.826979
0,0.5,0,0.5,0,0,1,-->,21.260805,33.429871,-32.188847
0,0.5,0,0.5,0,0.5,0,-->,47.015953,2.040179,-11.803938
0,0.5,0,0.5,0,0.5,0.5,-->,32.083000,10.857940,-18.272003
0,0.5,0,0.5,0,0.5,1,-->,19.084322,20.791018,-24.892958
0,0.5,0,0.5,0,1,0,-->,35.448856,-29.883026,-10.967542
0,0.5,0,0.5,0,1,0.5,-->,25.447666,-7.579226,-15.122444
0,0.5,0,0.5,0,1,1,-->,17.248055,10.969806,-18.965208
0,0.5,0,0.5,0.5,0,0,-->,51.500656,42.688194,18.668619
0,0.5,0,0.5,0.5,0,0.5,-->,35.472664,34.847343,4.848623
0,0.5,0,0.5,0.5,0,1,-->,21.459560,28.816719,-7.142431
0,0.5,0,0.5,0.5,0.5,0,-->,39.391068,18.765711,10.030177
0,0.5,0,0.5,0.5,0.5,0.5,-->,29.664131,20.073479,1.553607
0,0.5,0,0.5,0.5,0.5,1,-->,18.330120,19.047731,-8.008625
0,0.5,0,0.5,0.5,1,0,-->,27.680864,-9.854642,2.109958
0,0.5,0,0.5,0.5,1,0.5,-->,22.695400,-1.521720,-1.019417
0,0.5,0,0.5,0.5,1,1,-->,17.322699,9.608081,-5.939089
0,0.5,0,0.5,1,0,0,-->,47.104939,51.629265,51.440266
0,0.5,0,0.5,1,0,0.5,-->,33.376961,39.168610,27.727560
0,0.5,0,0.5,1,0,1,-->,22.091200,28.264973,10.511398
0,0.5,0,0.5,1,0.5,0,-->,35.060223,29.964258,30.547405
0,0.5,0,0.5,1,0.5,0.5,-->,27.051493,26.297012,18.912338
0,0.5,0,0.5,1,0.5,1,-->,19.738710,14.290630,6.930365
0,0.5,0,0.5,1,1,0,-->,23.269127,4.974001,13.926914
0,0.5,0,0.5,1,1,0.5,-->,17.753208,12.052520,3.716132
0,0.5,0,0.5,1,1,1,-->,15.705104,10.218009,2.592365
0,0.5,0,1,0,0,0,-->,20.534910,6.440996,0.042428
0,0.5,0,1,0,0,0.5,-->,17.635052,8.911806,-2.360479
0,0.5,0,1,0,0,1,-->,16.100597,11.161027,-3.132750
0,0.5,0,1,0,0.5,0,-->,16.407207,0.128821,-1.630219
0,0.5,0,1,0,0.5,0.5,-->,13.597181,4.969928,-2.499521
0,0.5,0,1,0,0.5,1,-->,15.119319,6.568913,0.479815
0,0.5,0,1,0,1,0,-->,15.299542,-2.557536,-1.890763
0,0.5,0,1,0,1,0.5,-->,13.576303,6.864187,-2.149735
0,0.5,0,1,0,1,1,-->,13.971413,8.653040,-0.538218
0,0.5,0,1,0.5,0,0,-->,22.466383,6.797220,9.372007
0,0.5,0,1,0.5,0,0.5,-->,14.639757,8.910833,2.880390
0,0.5,0,1,0.5,0,1,-->,15.394839,7.140280,3.387237
0,0.5,0,1,0.5,0.5,0,-->,15.761645,1.892306,5.166605
0,0.5,0,1,0.5,0.5,0.5,-->,17.693777,1.938162,-1.134004
0,0.5,0,1,0.5,0.5,1,-->,15.523691,6.198600,-2.838721
0,0.5,0,1,0.5,1,0,-->,14.331612,0.111676,2.075654
0,0.5,0,1,0.5,1,0.5,-->,16.338083,-2.437949,-1.254085
0,0.5,0,1,0.5,1,1,-->,15.119033,4.705812,-2.275683
0,0.5,0,1,1,0,0,-->,23.757511,7.422697,15.031119
0,0.5,0,1,1,0,0.5,-->,16.991625,6.114822,2.796490
0,0.5,0,1,1,0,1,-->,15.728312,7.835370,1.558274
0,0.5,0,1,1,0.5,0,-->,18.261778,0.263333,4.711846
0,0.5,0,1,1,0.5,0.5,-->,19.230476,2.738019,6.113029
0,0.5,0,1,1,0.5,1,-->,15.672781,5.622809,0.276709
0,0.5,0,1,1,1,0,-->,15.822673,-2.523543,4.739265
0,0.5,0,1,1,1,0.5,-->,16.414572,-1.597997,2.104973
0,0.5,0,1,1,1,1,-->,15.200435,3.888324,-0.299629
0,0.5,0.5,0,0,0,0,-->,85.443878,40.899540,27.420340
0,0.5,0.5,0,0,0,0.5,-->,56.379734,40.436630,4.269975
0,0.5,0.5,0,0,0,1,-->,28.957117,44.929726,-21.555271
0,0.5,0.5,0,0,0.5,0,-->,67.556068,2.092479,18.995037
0,0.5,0.5,0,0,0.5,0.5,-->,44.258739,12.250277,0.115476
0,0.5,0.5,0,0,0.5,1,-->,24.063316,25.302485,-18.408485
0,0.5,0.5,0,0,1,0,-->,51.733685,-49.217453,11.187504
0,0.5,0.5,0,0,1,0.5,-->,34.557659,-20.621630,-2.844824
0,0.5,0.5,0,0,1,1,-->,20.562992,7.657660,-15.929521
0,0.5,0.5,0,0.5,0,0,-->,74.356415,65.927887,57.185951
0,0.5,0.5,0,0.5,0,0.5,-->,50.622082,54.143879,30.271114
0,0.5,0.5,0,0.5,0,1,-->,29.726255,44.736359,6.701586
0,0.5,0.5,0,0.5,0.5,0,-->,56.447392,31.610785,38.028412
0,0.5,0.5,0,0.5,0.5,0.5,-->,42.489826,29.976645,22.074390
0,0.5,0.5,0,0.5,0.5,1,-->,22.567713,30.417253,-1.431680
0,0.5,0.5,0,0.5,1,0,-->,39.746964,-13.033164,20.422985
0,0.5,0.5,0,0.5,1,0.5,-->,31.636086,-5.024911,12.771669
0,0.5,0.5,0,0.5,1,1,-->,19.815409,13.325908,-2.280091
0,0.5,0.5,0,1,0,0,-->,69.235001,79.085907,88.349915
0,0.5,0.5,0,1,0,0.5,-->,48.410549,62.133163,52.960773
0,0.5,0.5,0,1,0,1,-->,30.900166,47.796593,26.019855
0,0.5,0.5,0,1,0.5,0,-->,50.850319,49.623234,56.888729
0,0.5,0.5,0,1,0.5,0.5,-->,38.041294,43.100090,37.173977
0,0.5,0.5,0,1,0.5,1,-->,24.032169,29.268469,13.896151
0,0.5,0.5,0,1,1,0,-->,33.394119,13.341183,30.330299
0,0.5,0.5,0,1,1,0.5,-->,24.510824,18.646519,14.755163
0,0.5,0.5,0,1,1,1,-->,14.898326,10.373314,-3.386500
0,0.5,0.5,0.5,0,0,0,-->,56.977741,24.808634,16.769709
0,0.5,0.5,0.5,0,0,0.5,-->,38.724781,25.344465,1.577166
0,0.5,0.5,0.5,0,0,1,-->,21.922306,28.285978,-12.492864
0,0.5,0.5,0.5,0,0.5,0,-->,45.737003,-0.225761,10.929938
0,0.5,0.5,0.5,0,0.5,0.5,-->,33.669640,9.532480,2.295130
0,0.5,0.5,0.5,0,0.5,1,-->,19.125145,17.418850,-10.178134
0,0.5,0.5,0.5,0,1,0,-->,35.325905,-30.564907,6.823606
0,0.5,0.5,0.5,0,1,0.5,-->,26.615757,-12.016802,0.907308
0,0.5,0.5,0.5,0,1,1,-->,17.994379,7.729294,-7.111721
0,0.5,0.5,0.5,0.5,0,0,-->,50.914471,41.299473,35.497612
0,0.5,0.5,0.5,0.5,0,0.5,-->,36.716663,37.806366,20.034964
0,0.5,0.5,0.5,0.5,0,1,-->,21.303799,29.638767,1.548181
0,0.5,0.5,0.5,0.5,0.5,0,-->,41.871071,16.546341,27.191805
0,0.5,0.5,0.5,0.5,0.5,0.5,-->,30.211926,18.823605,14.411692
0,0.5,0.5,0.5,0.5,0.5,1,-->,18.088125,17.558228,-0.443049
0,0.5,0.5,0.5,0.5,1,0,-->,31.819544,-14.284269,17.665625
0,0.5,0.5,0.5,0.5,1,0.5,-->,23.602940,-3.597153,8.517585
0,0.5,0.5,0.5,0.5,1,1,-->,17.150364,8.119367,-9.866064
0,0.5,0.5,0.5,1,0,0,-->,47.528664,51.108604,53.975914
0,0.5,0.5,0.5,1,0,0.5,-->,33.937233,45.391537,31.691872
0,0.5,0.5,0.5,1,0,1,-->,22.692844,25.288486,12.345028
0,0.5,0.5,0.5,1,0.5,0,-->,37.154892,30.339146,37.102024
0,0.5,0.5,0.5,1,0.5,0.5,-->,27.329388,26.760132,20.771685
0,0.5,0.5,0.5,1,0.5,1,-->,19.373671,17.940062,4.981480
0,0.5,0.5,0.5,1,1,0,-->,24.290228,8.303444,15.140842
0,0.5,0.5,0.5,1,1,0.5,-->,21.275612,6.404047,8.343843
0,0.5,0.5,0.5,1,1,1,-->,15.049572,7.535034,-2.294879
0,0.5,0.5,1,0,0,0,-->,20.498594,3.628600,2.951552
0,0.5,0.5,1,0,0,0.5,-->,14.185208,7.041562,0.373923
0,0.5,0.5,1,0,0,1,-->,15.287047,7.201001,1.673681
0,0.5,0.5,1,0,0.5,0,-->,15.929101,-1.745596,2.980172
0,0.5,0.5,1,0,0.5,0.5,-->,17.764561,1.471623,-1.423495
0,0.5,0.5,1,0,0.5,1,-->,15.523115,6.544944,-2.903219
0,0.5,0.5,1,0,1,0,-->,15.168001,-3.532070,1.592852
0,0.5,0.5,1,0,1,0.5,-->,16.540934,-2.866384,-1.086772
0,0.5,0.5,1,0,1,1,-->,15.120919,5.014446,-2.139924
0,0.5,0.5,1,0.5,0,0,-->,22.242748,6.588398,10.713243
0,0.5,0.5,1,0.5,0,0.5,-->,18.940365,3.792903,0.537907
0,0.5,0.5,1,0.5,0,1,-->,15.947861,7.710402,-1.953141
0,0.5,0.5,1,0.5,0.5,0,-->,18.949282,1.195667,0.225031
0,0.5,0.5,1,0.5,0.5,0.5,-->,18.552542,1.192490,-1.712751
0,0.5,0.5,1,0.5,0.5,1,-->,15.594585,6.213130,-3.598665
0,0.5,0.5,1,0.5,1,0,-->,17.016430,-3.606037,-0.382617
0,0.5,0.5,1,0.5,1,0.5,-->,16.883997,-3.673970,-1.460626
0,0.5,0.5,1,0.5,1,1,-->,15.200794,4.365046,-2.490789
0,0.5,0.5,1,1,0,0,-->,23.645935,8.465650,15.097464
0,0.5,0.5,1,1,0,0.5,-->,20.409697,5.158428,8.562088
0,0.5,0.5,1,1,0,1,-->,16.099888,7.206625,1.369545
0,0.5,0.5,1,1,0.5,0,-->,20.280817,3.123926,8.113833
0,0.5,0.5,1,1,0.5,0.5,-->,19.760181,2.965551,6.995584
0,0.5,0.5,1,1,0.5,1,-->,15.712614,5.532967,0.239136
0,0.5,0.5,1,1,1,0,-->,16.858162,-1.599327,2.713883
0,0.5,0.5,1,1,1,0.5,-->,16.554577,-1.561701,1.851040
0,0.5,0.5,1,1,1,1,-->,15.189182,3.800138,-0.354270
0,0.5,1,0,0,0,0,-->,82.816628,41.121628,77.616692
0,0.5,1,0,0,0,0.5,-->,55.643620,39.267799,43.508038
0,0.5,1,0,0,0,1,-->,30.996967,41.727104,9.938891
0,0.5,1,0,0,0.5,0,-->,66.189873,3.092312,55.751968
0,0.5,1,0,0,0.5,0.5,-->,43.924496,11.634420,28.800516
0,0.5,1,0,0,0.5,1,-->,25.098314,22.509468,4.627095
0,0.5,1,0,0,1,0,-->,52.063251,-45.434177,37.226868
0,0.5,1,0,0,1,0.5,-->,34.738132,-20.963194,17.458126
0,0.5,1,0,0,1,1,-->,21.679499,4.329587,0.260370
0,0.5,1,0,0.5,0,0,-->,74.065559,65.808159,84.373177
0,0.5,1,0,0.5,0,0.5,-->,50.711990,55.873714,50.973938
0,0.5,1,0,0.5,0,1,-->,31.539272,47.361610,23.255703
0,0.5,1,0,0.5,0.5,0,-->,56.677837,32.676353,58.006554
0,0.5,1,0,0.5,0.5,0.5,-->,42.344856,30.015205,38.855400
0,0.5,1,0,0.5,0.5,1,-->,24.546757,27.044950,11.973637
0,0.5,1,0,0.5,1,0,-->,41.460617,-9.503510,36.144306
0,0.5,1,0,0.5,1,0.5,-->,32.647255,-2.668308,21.913477
0,0.5,1,0,0.5,1,1,-->,19.014063,0.320756,-3.678879
0,0.5,1,0,1,0,0,-->,69.713631,77.877861,91.443062
0,0.5,1,0,1,0,0.5,-->,49.155098,63.178429,56.858395
0,0.5,1,0,1,0,1,-->,33.304630,50.393738,30.767853
0,0.5,1,0,1,0.5,0,-->,51.980515,49.185268,61.050190
0,0.5,1,0,1,0.5,0.5,-->,39.465397,43.224968,39.883396
0,0.5,1,0,1,0.5,1,-->,24.352638,29.759190,12.630500
0,0.5,1,0,1,1,0,-->,36.481430,14.658465,35.591862
0,0.5,1,0,1,1,0.5,-->,30.375620,6.539168,22.398712
0,0.5,1,0,1,1,1,-->,17.153143,10.691646,0.362721
0,0.5,1,0.5,0,0,0,-->,55.056717,23.607441,48.371624
0,0.5,1,0.5,0,0,0.5,-->,38.057793,23.928190,25.511322
0,0.5,1,0.5,0,0,1,-->,22.657057,26.666916,5.410446
0,0.5,1,0.5,0,0.5,0,-->,44.825420,-0.592799,33.953953
0,0.5,1,0.5,0,0.5,0.5,-->,33.037331,8.181257,20.714672
0,0.5,1,0.5,0,0.5,1,-->,20.574314,12.083253,3.989246
0,0.5,1,0.5,0,1,0,-->,35.625053,-29.282490,22.991571
0,0.5,1,0.5,0,1,0.5,-->,27.272903,-11.757648,11.377342
0,0.5,1,0.5,0,1,1,-->,18.885311,1.896334,1.513649
0,0.5,1,0.5,0.5,0,0,-->,50.453262,40.911407,51.773491
0,0.5,1,0.5,0.5,0,0.5,-->,36.373428,37.250687,32.001862
0,0.5,1,0.5,0.5,0,1,-->,22.986042,25.761972,11.092768
0,0.5,1,0.5,0.5,0.5,0,-->,41.616119,15.935775,39.718044
0,0.5,1,0.5,0.5,0.5,0.5,-->,29.899900,18.017044,22.756727
0,0.5,1,0.5,0.5,0.5,1,-->,20.128456,15.835840,2.921473
0,0.5,1,0.5,0.5,1,0,-->,33.117191,-13.224066,24.231186
0,0.5,1,0.5,0.5,1,0.5,-->,29.762518,-14.950291,15.511170
0,0.5,1,0.5,0.5,1,1,-->,17.255764,1.591575,-2.459274
0,0.5,1,0.5,1,0,0,-->,47.891323,50.591267,55.691353
0,0.5,1,0.5,1,0,0.5,-->,35.215851,45.787231,33.619083
0,0.5,1,0.5,1,0,1,-->,24.854578,27.042137,16.813148
0,0.5,1,0.5,1,0.5,0,-->,38.712482,30.095503,39.344402
0,0.5,1,0.5,1,0.5,0.5,-->,34.068348,26.974426,30.281616
0,0.5,1,0.5,1,0.5,1,-->,20.480749,19.298168,7.191502
0,0.5,1,0.5,1,1,0,-->,27.363596,9.223237,20.423882
0,0.5,1,0.5,1,1,0.5,-->,24.392723,3.451180,13.542390
0,0.5,1,0.5,1,1,1,-->,16.188890,6.602898,-0.792007
0,0.5,1,1,0,0,0,-->,20.664278,0.982772,5.687451
0,0.5,1,1,0,0,0.5,-->,14.386870,5.930562,-1.219370
0,0.5,1,1,0,0,1,-->,14.599973,9.048720,1.668544
0,0.5,1,1,0,0.5,0,-->,16.367172,-3.137712,1.548941
0,0.5,1,1,0,0.5,0.5,-->,17.725351,-0.529426,1.539883
0,0.5,1,1,0,0.5,1,-->,15.497860,5.825202,-0.178644
0,0.5,1,1,0,1,0,-->,15.761030,-6.464768,3.864887
0,0.5,1,1,0,1,0.5,-->,17.288298,-5.316880,2.580616
0,0.5,1,1,0,1,1,-->,15.285439,3.746515,-0.447669
0,0.5,1,1,0.5,0,0,-->,22.918394,6.396037,10.728124
0,0.5,1,1,0.5,0,0.5,-->,18.934931,1.836707,3.503496
0,0.5,1,1,0.5,0,1,-->,15.955099,7.019173,0.687026
0,0.5,1,1,0.5,0.5,0,-->,18.891706,-0.615567,3.191821
0,0.5,1,1,0.5,0.5,0.5,-->,18.361786,-0.804288,1.946993
0,0.5,1,1,0.5,0.5,1,-->,15.639954,5.256098,-0.486412
0,0.5,1,1,0.5,1,0,-->,17.790745,-5.626487,3.109335
0,0.5,1,1,0.5,1,0.5,-->,17.584955,-5.610946,2.299082
0,0.5,1,1,0.5,1,1,-->,15.268183,3.301696,-0.698509
0,0.5,1,1,1,0,0,-->,24.084986,9.616972,15.912551
0,0.5,1,1,1,0,0.5,-->,20.910099,6.165572,9.687710
0,0.5,1,1,1,0,1,-->,16.386908,7.476471,2.052779
0,0.5,1,1,1,0.5,0,-->,20.713013,4.305374,9.084591
0,0.5,1,1,1,0.5,0.5,-->,20.135454,4.025663,7.897869
0,0.5,1,1,1,0.5,1,-->,15.940532,5.803649,0.930000
0,0.5,1,1,1,1,0,-->,17.324251,-1.170504,3.410917
0,0.5,1,1,1,1,0.5,-->,16.944572,-1.197339,2.582242
0,0.5,1,1,1,1,1,-->,14.791412,0.670991,-2.466569
0,1,0,0,0,0,0,-->,61.231316,92.091850,-10.616281
0,1,0,0,0,0,0.5,-->,42.316723,70.435143,-21.350439
0,1,0,0,0,0,1,-->,26.763586,52.225468,-32.898788
0,1,0,0,0,0.5,0,-->,43.889038,57.335587,-19.296284
0,1,0,0,0,0.5,0.5,-->,31.049656,44.085865,-24.201464
0,1,0,0,0,0.5,1,-->,21.574223,34.414761,-29.066807
0,1,0,0,0,1,0,-->,27.497646,10.249516,-29.954758
0,1,0,0,0,1,0.5,-->,21.969484,15.054192,-27.342344
0,1,0,0,0,1,1,-->,18.046309,18.732426,-26.386293
0,1,0,0,0.5,0,0,-->,59.943367,88.511879,32.407345
0,1,0,0,0.5,0,0.5,-->,42.048065,66.754822,14.440160
0,1,0,0,0.5,0,1,-->,27.882925,48.362202,-1.355402
0,1,0,0,0.5,0.5,0,-->,42.412804,57.087536,14.737516
0,1,0,0,0.5,0.5,0.5,-->,30.441099,42.796215,3.669866
0,1,0,0,0.5,0.5,1,-->,21.721485,31.559137,-5.126784
0,1,0,0,0.5,1,0,-->,25.564072,16.477352,-4.411024
0,1,0,0,0.5,1,0.5,-->,20.181841,17.239803,-7.490546
0,1,0,0,0.5,1,1,-->,17.681767,16.135630,-7.995881
0,1,0,0,1,0,0,-->,59.266766,87.204765,68.728394
0,1,0,0,1,0,0.5,-->,42.205349,65.887421,40.171818
0,1,0,0,1,0,1,-->,29.162943,48.617184,20.087402
0,1,0,0,1,0.5,0,-->,42.021530,57.657127,40.011616
0,1,0,0,1,0.5,0.5,-->,30.778191,44.193157,22.841919
0,1,0,0,1,0.5,1,-->,22.598917,31.894310,10.388391
0,1,0,0,1,1,0,-->,25.582378,21.516308,14.522311
0,1,0,0,1,1,0.5,-->,21.237127,17.937174,6.669850
0,1,0,0,1,1,1,-->,18.093832,16.688591,3.241127
0,1,0,0.5,0,0,0,-->,40.817631,59.993378,-8.968051
0,1,0,0.5,0,0,0.5,-->,29.614077,44.749508,-14.562946
0,1,0,0.5,0,0,1,-->,20.638081,32.131298,-19.410423
0,1,0,0.5,0,0.5,0,-->,30.584892,35.191364,-13.326281
0,1,0,0.5,0,0.5,0.5,-->,23.453836,26.909981,-14.850416
0,1,0,0.5,0,0.5,1,-->,17.713209,21.192474,-16.302143
0,1,0,0.5,0,1,0,-->,20.867596,6.008291,-17.817806
0,1,0,0.5,0,1,0.5,-->,17.918991,10.328020,-15.717249
0,1,0,0.5,0,1,1,-->,16.297363,12.635636,-13.902801
0,1,0,0.5,0.5,0,0,-->,41.291126,56.254105,19.920895
0,1,0,0.5,0.5,0,0.5,-->,30.050373,41.856647,8.054542
0,1,0,0.5,0.5,0,1,-->,21.371830,29.993029,-0.407695
0,1,0,0.5,0.5,0.5,0,-->,30.521847,33.693363,8.655320
0,1,0,0.5,0.5,0.5,0.5,-->,23.595699,29.776531,1.798618
0,1,0,0.5,0.5,0.5,1,-->,19.116676,18.510181,-3.343980
0,1,0,0.5,0.5,1,0,-->,19.975363,8.350850,-1.699390
0,1,0,0.5,0.5,1,0.5,-->,16.081476,12.537070,-6.879713
0,1,0,0.5,0.5,1,1,-->,16.551523,11.735785,-6.750330
0,1,0,0.5,1,0,0,-->,41.301937,55.401459,42.103054
0,1,0,0.5,1,0,0.5,-->,30.331791,41.285385,22.844048
0,1,0,0.5,1,0,1,-->,22.073341,30.041180,10.642522
0,1,0,0.5,1,0.5,0,-->,30.391356,34.310692,23.879250
0,1,0,0.5,1,0.5,0.5,-->,26.283840,25.002697,16.836449
0,1,0,0.5,1,0.5,1,-->,19.942085,21.572590,6.670337
0,1,0,0.5,1,1,0,-->,20.813517,9.858441,8.890224
0,1,0,0.5,1,1,0.5,-->,19.164009,10.556677,5.256752
0,1,0,0.5,1,1,1,-->,16.746033,10.244091,0.806750
0,1,0,1,0,0,0,-->,19.324326,11.225760,3.398424
0,1,0,1,0,0,0.5,-->,17.893759,9.978455,-0.122300
0,1,0,1,0,0,1,-->,16.009579,11.444522,-1.721285
0,1,0,1,0,0.5,0,-->,15.679647,4.555720,0.227570
0,1,0,1,0,0.5,0.5,-->,14.582933,3.868382,0.050910
0,1,0,1,0,0.5,1,-->,14.330381,7.024797,0.504529
0,1,0,1,0,1,0,-->,15.273750,2.305374,-2.412240
0,1,0,1,0,1,0.5,-->,13.786742,6.013869,-1.191426
0,1,0,1,0,1,1,-->,15.092432,7.986997,-1.146057
0,1,0,1,0.5,0,0,-->,22.874514,8.787051,10.405202
0,1,0,1,0.5,0,0.5,-->,16.708561,6.519379,4.703228
0,1,0,1,0.5,0,1,-->,15.547809,7.897580,2.758918
0,1,0,1,0.5,0.5,0,-->,17.250051,1.280858,5.841784
0,1,0,1,0.5,0.5,0.5,-->,16.970890,5.503116,1.376917
0,1,0,1,0.5,0.5,1,-->,15.338081,6.431892,-1.566010
0,1,0,1,0.5,1,0,-->,14.530213,0.427773,2.578215
0,1,0,1,0.5,1,0.5,-->,14.894099,1.744236,-1.796688
0,1,0,1,0.5,1,1,-->,14.953741,4.739083,-1.868550
0,1,0,1,1,0,0,-->,23.675920,9.760756,14.976068
0,1,0,1,1,0,0.5,-->,17.922390,6.768676,4.344269
0,1,0,1,1,0,1,-->,16.683798,10.936718,3.515761
0,1,0,1,1,0.5,0,-->,18.194118,2.105657,7.116418
0,1,0,1,1,0.5,0.5,-->,19.039507,5.103590,6.217507
0,1,0,1,1,0.5,1,-->,15.834851,6.437911,0.717789
0,1,0,1,1,1,0,-->,17.310478,-0.859202,4.602153
0,1,0,1,1,1,0.5,-->,16.237583,-0.111676,1.483615
0,1,0,1,1,1,1,-->,14.789651,0.900149,-2.723397
0,1,0.5,0,0,0,0,-->,61.370884,87.315765,20.548697
0,1,0.5,0,0,0,0.5,-->,42.869717,66.964149,4.834017
0,1,0.5,0,0,0,1,-->,27.928934,49.021725,-9.447411
0,1,0.5,0,0,0.5,0,-->,44.090740,53.942322,6.168916
0,1,0.5,0,0,0.5,0.5,-->,31.374804,41.737774,-3.535938
0,1,0.5,0,0,0.5,1,-->,21.976768,31.637384,-11.044708
0,1,0.5,0,0,1,0,-->,27.997768,8.786352,-9.154857
0,1,0.5,0,0,1,0.5,-->,21.634314,13.135902,-11.478333
0,1,0.5,0,0,1,1,-->,18.139898,15.780211,-12.913562
0,1,0.5,0,0.5,0,0,-->,60.063118,87.093918,50.434292
0,1,0.5,0,0.5,0,0.5,-->,42.752182,66.756577,29.200863
0,1,0.5,0,0.5,0,1,-->,28.947884,48.940121,12.138533
0,1,0.5,0,0.5,0.5,0,-->,42.925659,56.661793,29.211229
0,1,0.5,0,0.5,0.5,0.5,-->,31.973955,48.953098,14.778509
0,1,0.5,0,0.5,0.5,1,-->,22.549910,31.907671,1.863291
0,1,0.5,0,0.5,1,0,-->,26.262152,18.800259,7.835051
0,1,0.5,0,0.5,1,0.5,-->,20.127388,20.218433,-0.782378
0,1,0.5,0,0.5,1,1,-->,14.930322,14.143684,-19.006124
0,1,0.5,0,1,0,0,-->,59.413391,87.028999,72.465294
0,1,0.5,0,1,0,0.5,-->,42.936920,67.598885,45.035023
0,1,0.5,0,1,0,1,-->,30.697361,51.100563,25.055605
0,1,0.5,0,1,0.5,0,-->,42.572762,58.636833,44.429504
0,1,0.5,0,1,0.5,0.5,-->,33.946907,45.968071,29.512978
0,1,0.5,0,1,0.5,1,-->,21.210630,31.140051,5.628250
0,1,0.5,0,1,1,0,-->,27.131962,25.085653,19.136967
0,1,0.5,0,1,1,0.5,-->,19.629864,16.757792,3.281694
0,1,0.5,0,1,1,1,-->,14.702404,13.041090,-4.829997
0,1,0.5,0.5,0,0,0,-->,40.621819,55.206059,11.837284
0,1,0.5,0.5,0,0,0.5,-->,29.885033,41.907898,1.982939
0,1,0.5,0.5,0,0,1,-->,20.999722,30.573881,-5.354475
0,1,0.5,0.5,0,0.5,0,-->,30.660767,32.224361,2.844778
0,1,0.5,0.5,0,0.5,0.5,-->,24.666084,27.686249,-0.251296
0,1,0.5,0.5,0,0.5,1,-->,19.423332,18.621851,-5.211846
0,1,0.5,0.5,0,1,0,-->,21.136171,4.352552,-4.990082
0,1,0.5,0.5,0,1,0.5,-->,16.876461,9.956066,-8.377335
0,1,0.5,0.5,0,1,1,-->,16.534754,11.320330,-7.419528
0,1,0.5,0.5,0.5,0,0,-->,41.274834,54.973331,30.552982
0,1,0.5,0.5,0.5,0,0.5,-->,29.390154,48.268150,15.576967
0,1,0.5,0.5,0.5,0,1,-->,22.043514,28.909069,4.146968
0,1,0.5,0.5,0.5,0.5,0,-->,31.154594,35.557800,18.050423
0,1,0.5,0.5,0.5,0.5,0.5,-->,23.325325,30.173990,8.635257
0,1,0.5,0.5,0.5,0.5,1,-->,18.494244,20.734491,-6.764785
0,1,0.5,0.5,0.5,1,0,-->,20.549019,9.918995,2.867303
0,1,0.5,0.5,0.5,1,0.5,-->,17.689587,9.324904,-7.065060
0,1,0.5,0.5,0.5,1,1,-->,14.835897,9.986024,-11.725578
0,1,0.5,0.5,1,0,0,-->,41.488312,55.569138,44.091248
0,1,0.5,0.5,1,0,0.5,-->,31.839668,44.055740,27.059328
0,1,0.5,0.5,1,0,1,-->,23.401379,28.208128,13.127649
0,1,0.5,0.5,1,0.5,0,-->,33.051144,33.654606,29.083405
0,1,0.5,0.5,1,0.5,0.5,-->,28.383171,30.790789,19.799103
0,1,0.5,0.5,1,0.5,1,-->,18.630224,20.082872,3.022396
0,1,0.5,0.5,1,1,0,-->,21.179941,12.120794,9.367918
0,1,0.5,0.5,1,1,0.5,-->,17.841267,9.313049,1.935198
0,1,0.5,0.5,1,1,1,-->,14.737423,8.085350,-3.966486
0,1,0.5,1,0,0,0,-->,19.914436,7.540262,5.033157
0,1,0.5,1,0,0,0.5,-->,15.479289,6.958726,2.064330
0,1,0.5,1,0,0,1,-->,14.575684,8.492659,1.524212
0,1,0.5,1,0,0.5,0,-->,15.611592,2.470741,2.203038
0,1,0.5,1,0,0.5,0.5,-->,16.707203,5.970582,0.906183
0,1,0.5,1,0,0.5,1,-->,15.271288,6.825262,-1.521264
0,1,0.5,1,0,1,0,-->,13.920936,0.484877,0.282044
0,1,0.5,1,0,1,0.5,-->,14.828891,2.010009,-1.915325
0,1,0.5,1,0,1,1,-->,14.953735,5.056974,-1.661370
0,1,0.5,1,0.5,0,0,-->,22.499916,8.158109,11.072507
0,1,0.5,1,0.5,0,0.5,-->,17.990417,7.856998,2.947768
0,1,0.5,1,0.5,0,1,-->,15.760903,8.007181,-0.620051
0,1,0.5,1,0.5,0.5,0,-->,17.755869,5.890482,2.384182
0,1,0.5,1,0.5,0.5,0.5,-->,17.182438,6.112314,0.938770
0,1,0.5,1,0.5,0.5,1,-->,15.414202,6.397284,-1.971737
0,1,0.5,1,0.5,1,0,-->,15.270437,1.521081,-1.309714
0,1,0.5,1,0.5,1,0.5,-->,15.032497,1.622505,-2.296080
0,1,0.5,1,0.5,1,1,-->,14.942880,4.509560,-1.905423
0,1,0.5,1,1,0,0,-->,23.736376,10.754723,15.257481
0,1,0.5,1,1,0,0.5,-->,20.200171,7.627855,8.324266
0,1,0.5,1,1,0,1,-->,16.246132,7.896546,1.715661
0,1,0.5,1,1,0.5,0,-->,19.965096,5.764222,7.826828
0,1,0.5,1,1,0.5,0.5,-->,19.402676,5.571512,6.555917
0,1,0.5,1,1,0.5,1,-->,15.792355,6.143715,0.551191
0,1,0.5,1,1,1,0,-->,16.504725,0.042277,1.984018
0,1,0.5,1,1,1,0.5,-->,16.125637,0.012972,1.124671
0,1,0.5,1,1,1,1,-->,14.788114,0.900088,-2.718420
0,1,1,0,0,0,0,-->,61.146812,84.883987,52.862041
0,1,1,0,0,0,0.5,-->,43.232948,65.257568,29.208067
0,1,1,0,0,0,1,-->,29.511490,49.157196,10.654119
0,1,1,0,0,0.5,0,-->,44.391441,52.342335,29.745344
0,1,1,0,0,0.5,0.5,-->,31.951109,42.343353,15.314128
0,1,1,0,0,0.5,1,-->,23.088396,31.589491,3.231233
0,1,1,0,0,1,0,-->,29.222792,10.368678,8.533589
0,1,1,0,0,1,0.5,-->,22.981897,13.126328,1.432880
0,1,1,0,0,1,1,-->,18.806780,15.474373,-2.627544
0,1,1,0,0.5,0,0,-->,60.183830,86.421783,66.314857
0,1,1,0,0.5,0,0.5,-->,43.093327,68.715828,41.581966
0,1,1,0,0.5,0,1,-->,30.949263,51.620117,22.796520
0,1,1,0,0.5,0.5,0,-->,43.321796,57.601860,41.067974
0,1,1,0,0.5,0.5,0.5,-->,32.476597,46.213112,23.179979
0,1,1,0,0.5,0.5,1,-->,21.445227,31.412830,0.988912
0,1,1,0,0.5,1,0,-->,28.334185,22.297621,17.528011
0,1,1,0,0.5,1,0.5,-->,21.426693,11.502766,0.320984
0,1,1,0,0.5,1,1,-->,15.166775,12.467990,-7.822465
0,1,1,0,1,0,0,-->,59.639954,86.965469,74.803749
0,1,1,0,1,0,0.5,-->,43.816448,67.924995,46.730282
0,1,1,0,1,0,1,-->,32.368553,53.741875,29.077780
0,1,1,0,1,0.5,0,-->,43.328178,58.933205,45.720612
0,1,1,0,1,0.5,0.5,-->,37.282295,51.413300,34.336197
0,1,1,0,1,0.5,1,-->,22.730326,33.648495,9.782750
0,1,1,0,1,1,0,-->,28.909454,28.562483,22.933723
0,1,1,0,1,1,0.5,-->,21.228369,20.199284,7.227509
0,1,1,0,1,1,1,-->,10.693233,9.640015,-14.259502
0,1,1,0.5,0,0,0,-->,40.536079,52.241245,29.804529
0,1,1,0.5,0,0,0.5,-->,29.986174,41.129822,15.973287
0,1,1,0.5,0,0,1,-->,22.088211,30.940182,5.584005
0,1,1,0.5,0,0.5,0,-->,30.917824,30.397676,16.628052
0,1,1,0.5,0,0.5,0.5,-->,25.232189,26.418926,9.873444
0,1,1,0.5,0,0.5,1,-->,20.529953,18.424870,3.766426
0,1,1,0.5,0,1,0,-->,22.199022,4.889904,4.801871
0,1,1,0.5,0,1,0.5,-->,17.700499,10.171089,-1.543546
0,1,1,0.5,0,1,1,-->,17.168724,9.867682,-2.471152
0,1,1,0.5,0.5,0,0,-->,41.409622,54.104984,38.599689
0,1,1,0.5,0.5,0,0.5,-->,29.884335,47.631805,20.865402
0,1,1,0.5,0.5,0,1,-->,23.127554,29.108892,10.074544
0,1,1,0.5,0.5,0.5,0,-->,31.725952,34.793694,23.633326
0,1,1,0.5,0.5,0.5,0.5,-->,27.365633,30.067232,13.891926
0,1,1,0.5,0.5,0.5,1,-->,18.681728,20.306635,0.114093
0,1,1,0.5,0.5,1,0,-->,21.555313,10.756957,6.877274
0,1,1,0.5,0.5,1,0.5,-->,18.532379,6.693424,-0.588528
0,1,1,0.5,0.5,1,1,-->,15.013874,7.932249,-5.635485
0,1,1,0.5,1,0,0,-->,41.636120,55.847084,45.214573
0,1,1,0.5,1,0,0.5,-->,32.557148,45.353828,29.512796
0,1,1,0.5,1,0,1,-->,25.586424,33.625465,17.078085
0,1,1,0.5,1,0.5,0,-->,33.853188,34.825821,31.589582
0,1,1,0.5,1,0.5,0.5,-->,29.448376,32.869747,22.334099
0,1,1,0.5,1,0.5,1,-->,19.704952,21.083632,5.223800
0,1,1,0.5,1,1,0,-->,23.473372,17.340849,13.177792
0,1,1,0.5,1,1,0.5,-->,18.787901,12.360622,3.579355
0,1,1,0.5,1,1,1,-->,12.448586,5.710341,-9.402649
0,1,1,1,0,0,0,-->,20.252033,4.657387,6.790973
0,1,1,1,0,0,0.5,-->,14.981979,6.218860,1.649788
0,1,1,1,0,0,1,-->,16.238424,11.219468,1.810291
0,1,1,1,0,0.5,0,-->,15.517189,0.660123,2.263196
0,1,1,1,0,0.5,0.5,-->,17.099510,3.153048,2.275234
0,1,1,1,0,0.5,1,-->,15.591457,6.970962,-0.009234
0,1,1,1,0,1,0,-->,16.238424,0.213769,1.326136
0,1,1,1,0,1,0.5,-->,15.624058,0.861087,-0.194329
0,1,1,1,0,1,1,-->,14.794930,1.739174,-2.249441
0,1,1,1,0.5,0,0,-->,23.261404,8.238482,11.623052
0,1,1,1,0.5,0,0.5,-->,18.495413,5.174692,4.265796
0,1,1,1,0.5,0,1,-->,16.014109,8.122573,0.833683
0,1,1,1,0.5,0.5,0,-->,18.237581,3.215349,3.683834
0,1,1,1,0.5,0.5,0.5,-->,17.664984,3.070501,2.472748
0,1,1,1,0.5,0.5,1,-->,15.567285,6.329176,-0.291817
0,1,1,1,0.5,1,0,-->,15.941686,0.604555,0.269671
0,1,1,1,0.5,1,0.5,-->,15.581162,0.583261,-0.521917
0,1,1,1,0.5,1,1,-->,14.791709,1.352416,-2.459844
0,1,1,1,1,0,0,-->,23.881876,11.938465,15.648510
0,1,1,1,1,0,0.5,-->,20.420444,8.753689,8.850660
0,1,1,1,1,0,1,-->,15.749044,4.454068,-0.321790
0,1,1,1,1,0.5,0,-->,20.165596,7.065835,8.197216
0,1,1,1,1,0.5,0.5,-->,19.557199,6.728914,6.941749
0,1,1,1,1,0.5,1,-->,15.318446,2.861664,-1.391645
0,1,1,1,1,1,0,-->,15.590614,1.066899,-0.975453
0,1,1,1,1,1,0.5,-->,15.248969,0.995889,-1.713199
0,1,1,1,1,1,1,-->,14.787893,0.900103,-2.708814
0.5,0,0,0,0,0,0,-->,93.715393,-18.100677,-43.041149
0.5,0,0,0,0,0,0.5,-->,60.435265,8.359285,-55.805202
0.5,0,0,0,0,0,1,-->,27.352673,49.043793,-76.820526
0.5,0,0,0,0,0.5,0,-->,79.227165,-48.828094,-31.248413
0.5,0,0,0,0,0.5,0.5,-->,51.245213,-15.207232,-43.114925
0.5,0,0,0,0,0.5,1,-->,25.579721,26.663328,-59.675964
0.5,0,0,0,0,1,0,-->,66.470161,-82.276016,-20.146852
0.5,0,0,0,0,1,0.5,-->,43.719402,-37.657486,-31.795942
0.5,0,0,0,0,1,1,-->,24.748110,8.386827,-45.477192
0.5,0,0,0,0.5,0,0,-->,72.262848,15.983424,-0.283260
0.5,0,0,0,0.5,0,0.5,-->,47.055729,22.782248,-15.709626
0.5,0,0,0,0.5,0,1,-->,24.123398,32.895359,-33.944794
0.5,0,0,0,0.5,0.5,0,-->,58.485825,-11.046144,-1.022039
0.5,0,0,0,0.5,0.5,0.5,-->,38.619061,3.346123,-13.245489
0.5,0,0,0,0.5,0.5,1,-->,21.681013,18.430948,-26.280302
0.5,0,0,0,0.5,1,0,-->,46.189697,-42.894363,-2.599562
0.5,0,0,0,0.5,1,0.5,-->,31.088030,-15.897139,-12.352385
0.5,0,0,0,0.5,1,1,-->,19.723852,7.372463,-21.024324
0.5,0,0,0,1,0,0,-->,58.699997,43.567146,59.753216
0.5,0,0,0,1,0,0.5,-->,39.524387,34.885101,30.352232
0.5,0,0,0,1,0,1,-->,23.318205,27.140766,6.134945
0.5,0,0,0,1,0.5,0,-->,44.568306,21.128925,38.289062
0.5,0,0,0,1,0.5,0.5,-->,30.710104,18.865828,17.423212
0.5,0,0,0,1,0.5,1,-->,19.565878,16.460678,2.539670
0.5,0,0,0,1,1,0,-->,32.023438,-5.774467,20.542799
0.5,0,0,0,1,1,0.5,-->,23.007359,2.199801,7.226597
0.5,0,0,0,1,1,1,-->,13.361671,8.017699,-0.160405
0.5,0,0,0.5,0,0,0,-->,63.112045,-12.661369,-28.193939
0.5,0,0,0.5,0,0,0.5,-->,41.167175,6.260582,-36.577133
0.5,0,0,0.5,0,0,1,-->,21.102953,29.966749,-47.624069
0.5,0,0,0.5,0,0.5,0,-->,53.476883,-32.720661,-20.486433
0.5,0,0,0.5,0,0.5,0.5,-->,35.785732,-7.808330,-27.574816
0.5,0,0,0.5,0,0.5,1,-->,20.175465,17.392799,-36.097099
0.5,0,0,0.5,0,1,0,-->,44.762917,-53.320587,-13.728177
0.5,0,0,0.5,0,1,0.5,-->,30.751837,-20.595701,-20.358509
0.5,0,0,0.5,0,1,1,-->,19.621796,7.719491,-26.903370
0.5,0,0,0.5,0.5,0,0,-->,49.546238,9.052718,1.952875
0.5,0,0,0.5,0.5,0,0.5,-->,33.503719,14.433381,-8.559633
0.5,0,0,0.5,0.5,0,1,-->,19.534058,20.287498,-18.806156
0.5,0,0,0.5,0.5,0.5,0,-->,40.651806,-8.147820,0.813377
0.5,0,0,0.5,0.5,0.5,0.5,-->,30.715832,1.282393,-6.672115
0.5,0,0,0.5,0.5,0.5,1,-->,18.081238,13.816477,-15.742836
0.5,0,0,0.5,0.5,1,0,-->,32.271671,-27.022068,-0.812928
0.5,0,0,0.5,0.5,1,0.5,-->,25.562344,-13.242100,-4.573343
0.5,0,0,0.5,0.5,1,1,-->,18.027395,6.591164,-10.394578
0.5,0,0,0.5,1,0,0,-->,40.872807,25.615770,37.292469
0.5,0,0,0.5,1,0,0.5,-->,28.897631,21.363495,17.618933
0.5,0,0,0.5,1,0,1,-->,18.885778,17.088345,3.801932
0.5,0,0,0.5,1,0.5,0,-->,32.199730,10.870556,22.992817
0.5,0,0,0.5,1,0.5,0.5,-->,25.333918,11.762200,14.147743
0.5,0,0,0.5,1,0.5,1,-->,18.725367,7.434643,3.898325
0.5,0,0,0.5,1,1,0,-->,23.964352,-5.311492,12.480149
0.5,0,0,0.5,1,1,0.5,-->,18.022476,4.581467,2.683560
0.5,0,0,0.5,1,1,1,-->,15.422410,6.257588,-0.179404
0.5,0,0,1,0,0,0,-->,20.392403,-1.826258,-5.953703
0.5,0,0,1,0,0,0.5,-->,17.474686,5.615726,-6.583200
0.5,0,0,1,0,0,1,-->,16.023836,9.893157,-6.210691
0.5,0,0,1,0,0.5,0,-->,19.520897,-5.956279,-3.905658
0.5,0,0,1,0,0.5,0.5,-->,13.843783,1.912475,-5.084074
0.5,0,0,1,0,0.5,1,-->,14.969036,6.229150,-2.176508
0.5,0,0,1,0,1,0,-->,18.512283,-8.654583,-2.628813
0.5,0,0,1,0,1,0.5,-->,14.477462,4.106843,-3.371156
0.5,0,0,1,0,1,1,-->,14.995016,7.306696,-1.503093
0.5,0,0,1,0.5,0,0,-->,19.050268,0.637750,5.388575
0.5,0,0,1,0.5,0,0.5,-->,14.214261,5.379394,1.164615
0.5,0,0,1,0.5,0,1,-->,15.531694,6.253332,1.926671
0.5,0,0,1,0.5,0.5,0,-->,15.922967,-3.536052,3.635090
0.5,0,0,1,0.5,0.5,0.5,-->,17.724876,0.490759,-1.674053
0.5,0,0,1,0.5,0.5,1,-->,15.505875,5.950215,-3.240238
0.5,0,0,1,0.5,1,0,-->,15.452819,-3.157053,1.810078
0.5,0,0,1,0.5,1,0.5,-->,16.600746,-3.464236,-1.326395
0.5,0,0,1,0.5,1,1,-->,15.169734,4.382723,-2.354498
0.5,0,0,1,1,0,0,-->,20.717413,0.044024,9.941551
0.5,0,0,1,1,0,0.5,-->,16.338606,2.117239,1.921185
0.5,0,0,1,1,0,1,-->,14.813462,6.974640,2.705918
0.5,0,0,1,1,0.5,0,-->,17.583227,-4.242556,3.804895
0.5,0,0,1,1,0.5,0.5,-->,19.079861,1.588429,6.028643
0.5,0,0,1,1,0.5,1,-->,15.553878,5.341609,0.475909
0.5,0,0,1,1,1,0,-->,15.853171,-4.665656,4.543333
0.5,0,0,1,1,1,0.5,-->,16.380398,-2.140281,2.196913
0.5,0,0,1,1,1,1,-->,15.159486,3.603537,-0.255400
0.5,0,0.5,0,0,0,0,-->,88.936913,-29.529387,9.444264
0.5,0,0.5,0,0,0,0.5,-->,57.720081,-5.380481,-12.961682
0.5,0,0.5,0,0,0,1,-->,27.135777,28.482626,-41.658760
0.5,0,0.5,0,0,0.5,0,-->,75.656296,-57.120922,10.868382
0.5,0,0.5,0,0,0.5,0.5,-->,49.367050,-25.105116,-9.091498
0.5,0,0.5,0,0,0.5,1,-->,25.217823,10.965140,-31.475641
0.5,0,0.5,0,0,1,0,-->,64.702469,-86.219879,11.467123
0.5,0,0.5,0,0,1,0.5,-->,42.751755,-45.336319,-5.719438
0.5,0,0.5,0,0,1,1,-->,24.054758,-3.182892,-23.557581
0.5,0,0.5,0,0.5,0,0,-->,70.749924,11.794514,34.706024
0.5,0,0.5,0,0.5,0,0.5,-->,46.636581,18.404320,12.014142
0.5,0,0.5,0,0.5,0,1,-->,25.159225,25.796640,-11.211306
0.5,0,0.5,0,0.5,0.5,0,-->,57.769550,-13.583329,26.626896
0.5,0,0.5,0,0.5,0.5,0.5,-->,43.373764,-3.339048,12.609159
0.5,0,0.5,0,0.5,0.5,1,-->,21.561499,16.003942,-11.201358
0.5,0,0.5,0,0.5,1,0,-->,46.672512,-43.598679,18.697937
0.5,0,0.5,0,0.5,1,0.5,-->,35.292309,-27.537487,9.450055
0.5,0,0.5,0,0.5,1,1,-->,20.446987,2.824974,-7.627741
0.5,0,0.5,0,1,0,0,-->,59.699162,41.106049,67.371002
0.5,0,0.5,0,1,0,0.5,-->,40.879082,34.065163,36.964043
0.5,0,0.5,0,1,0,1,-->,24.887579,27.905481,13.018504
0.5,0,0.5,0,1,0.5,0,-->,46.418018,19.156132,45.560871
0.5,0,0.5,0,1,0.5,0.5,-->,35.297947,17.501093,30.582682
0.5,0,0.5,0,1,0.5,1,-->,21.877575,13.917794,8.756075
0.5,0,0.5,0,1,1,0,-->,34.544731,-6.847552,28.593321
0.5,0,0.5,0,1,1,0.5,-->,24.719469,0.869599,13.388255
0.5,0,0.5,0,1,1,1,-->,14.256060,6.710904,-1.635896
0.5,0,0.5,0.5,0,0,0,-->,59.965496,-20.216223,5.477231
0.5,0,0.5,0.5,0,0,0.5,-->,39.493587,-1.929149,-9.376795
0.5,0,0.5,0.5,0,0,1,-->,21.008982,18.257420,-24.613262
0.5,0,0.5,0.5,0,0.5,0,-->,51.343132,-37.916653,6.443580
0.5,0,0.5,0.5,0,0.5,0.5,-->,36.201893,-14.257504,-5.138571
0.5,0,0.5,0.5,0,0.5,1,-->,19.495525,9.424976,-18.170078
0.5,0,0.5,0.5,0,1,0,-->,43.797508,-56.163311,7.469419
0.5,0,0.5,0.5,0,1,0.5,-->,30.533678,-27.548977,-2.402672
0.5,0,0.5,0.5,0,1,1,-->,19.154699,2.579264,-11.591331
0.5,0,0.5,0.5,0.5,0,0,-->,48.544537,6.604053,22.508160
0.5,0,0.5,0.5,0.5,0,0.5,-->,36.004391,11.689123,10.512280
0.5,0,0.5,0.5,0.5,0,1,-->,19.719980,18.688910,-7.006353
0.5,0,0.5,0.5,0.5,0.5,0,-->,43.351299,-13.075547,20.786579
0.5,0,0.5,0.5,0.5,0.5,0.5,-->,31.096918,-1.699611,9.027578
0.5,0,0.5,0.5,0.5,0.5,1,-->,17.734594,10.384029,-5.260704
0.5,0,0.5,0.5,0.5,1,0,-->,35.339222,-34.242432,16.137331
0.5,0,0.5,0.5,0.5,1,0.5,-->,25.623137,-16.270590,6.828469
0.5,0,0.5,0.5,0.5,1,1,-->,17.136948,4.238072,-10.938929
0.5,0,0.5,0.5,1,0,0,-->,41.592045,24.478977,41.578320
0.5,0,0.5,0.5,1,0,0.5,-->,30.882484,24.410065,25.125673
0.5,0,0.5,0.5,1,0,1,-->,20.705448,13.958345,8.062932
0.5,0,0.5,0.5,1,0.5,0,-->,35.621761,7.667084,32.969395
0.5,0,0.5,0.5,1,0.5,0.5,-->,26.188622,10.843532,18.264685
0.5,0,0.5,0.5,1,0.5,1,-->,18.483364,12.400003,4.203722
0.5,0,0.5,0.5,1,1,0,-->,24.872900,-6.272764,14.956218
0.5,0,0.5,0.5,1,1,0.5,-->,21.184450,-0.400126,8.783434
0.5,0,0.5,0.5,1,1,1,-->,14.624840,5.348206,-1.144423
0.5,0,0.5,1,0,0,0,-->,20.327452,-4.493464,-0.703661
0.5,0,0.5,1,0,0,0.5,-->,14.121040,3.422879,-1.973280
0.5,0,0.5,1,0,0,1,-->,15.297647,6.635653,-0.177033
0.5,0,0.5,1,0,0.5,0,-->,19.361221,-8.062256,0.682010
0.5,0,0.5,1,0,0.5,0.5,-->,18.315985,-0.435343,-2.104373
0.5,0,0.5,1,0,0.5,1,-->,15.651119,5.818696,-3.339839
0.5,0,0.5,1,0,1,0,-->,18.759491,-10.580532,2.060181
0.5,0,0.5,1,0,1,0.5,-->,17.211205,-4.736066,-1.152258
0.5,0,0.5,1,0,1,1,-->,15.348413,4.142424,-2.257824
0.5,0,0.5,1,0.5,0,0,-->,18.399475,0.557286,9.150206
0.5,0,0.5,1,0.5,0,0.5,-->,18.270481,1.175315,-0.478432
0.5,0,0.5,1,0.5,0,1,-->,15.653418,6.240231,-2.882563
0.5,0,0.5,1,0.5,0.5,0,-->,18.858347,-0.996991,-0.173613
0.5,0,0.5,1,0.5,0.5,0.5,-->,18.519930,0.355516,-1.910287
0.5,0,0.5,1,0.5,0.5,1,-->,15.556161,5.900483,-3.676516
0.5,0,0.5,1,0.5,1,0,-->,17.342093,-5.342931,-0.331487
0.5,0,0.5,1,0.5,1,0.5,-->,16.986650,-4.242465,-1.402672
0.5,0,0.5,1,0.5,1,1,-->,15.197894,4.136785,-2.396524
0.5,0,0.5,1,1,0,0,-->,20.316818,0.248940,9.429505
0.5,0,0.5,1,1,0,0.5,-->,19.668396,2.434370,7.307320
0.5,0,0.5,1,1,0,1,-->,15.722135,5.571010,0.803528
0.5,0,0.5,1,1,0.5,0,-->,19.909760,1.123167,7.739979
0.5,0,0.5,1,1,0.5,0.5,-->,19.607880,2.255156,6.919710
0.5,0,0.5,1,1,0.5,1,-->,15.639168,5.208859,0.309873
0.5,0,0.5,1,1,1,0,-->,16.807657,-2.766533,2.885542
0.5,0,0.5,1,1,1,0.5,-->,16.510374,-1.874280,1.981601
0.5,0,0.5,1,1,1,1,-->,15.156219,3.607412,-0.241842
0.5,0,1,0,0,0,0,-->,85.247673,-34.038929,66.851067
0.5,0,1,0,0,0,0.5,-->,55.865723,-11.932827,32.126328
0.5,0,1,0,0,0,1,-->,28.312778,15.243665,-5.247222
0.5,0,1,0,0,0.5,0,-->,73.398117,-59.396416,52.939724
0.5,0,1,0,0,0.5,0.5,-->,48.178116,-30.734484,24.669666
0.5,0,1,0,0,0.5,1,-->,25.596136,0.208312,-4.068442
0.5,0,1,0,0,1,0,-->,63.979839,-85.772667,41.355042
0.5,0,1,0,0,1,0.5,-->,42.191071,-49.197632,18.412361
0.5,0,1,0,0,1,1,-->,24.972326,-11.812699,-2.970627
0.5,0,1,0,0.5,0,0,-->,69.883644,10.484405,68.570366
0.5,0,1,0,0.5,0,0.5,-->,46.603268,16.845978,37.838150
0.5,0,1,0,0.5,0,1,-->,26.688042,23.914587,9.315238
0.5,0,1,0,0.5,0.5,0,-->,57.849323,-14.100079,51.573364
0.5,0,1,0,0.5,0.5,0.5,-->,42.876339,-5.279292,34.160934
0.5,0,1,0,0.5,0.5,1,-->,23.277903,8.995356,5.852286
0.5,0,1,0,0.5,1,0,-->,47.732353,-42.172562,37.489010
0.5,0,1,0,0.5,1,0.5,-->,35.982635,-26.935091,22.033703
0.5,0,1,0,0.5,1,1,-->,18.596554,-4.150700,-1.872388
0.5,0,1,0,1,0,0,-->,60.879906,38.676140,73.198547
0.5,0,1,0,1,0,0.5,-->,41.861034,33.449947,42.115990
0.5,0,1,0,1,0,1,-->,26.994102,28.968103,18.303900
0.5,0,1,0,1,0.5,0,-->,47.952457,16.851906,51.224770
0.5,0,1,0,1,0.5,0.5,-->,36.953846,16.578943,34.279854
0.5,0,1,0,1,0.5,1,-->,22.979584,24.431389,13.404138
0.5,0,1,0,1,1,0,-->,37.815346,-8.050901,35.125126
0.5,0,1,0,1,1,0.5,-->,29.855433,0.235686,24.257267
0.5,0,1,0,1,1,1,-->,16.299074,7.294841,2.601333
0.5,0,1,0.5,0,0,0,-->,57.273685,-23.780462,42.601604
0.5,0,1,0.5,0,0,0.5,-->,38.138103,-6.500820,18.713669
0.5,0,1,0.5,0,0,1,-->,21.356394,10.989474,-2.921542
0.5,0,1,0.5,0,0.5,0,-->,49.701839,-40.010563,33.270096
0.5,0,1,0.5,0,0.5,0.5,-->,35.125778,-17.266365,17.856510
0.5,0,1,0.5,0,0.5,1,-->,20.766493,1.384228,-0.079955
0.5,0,1,0.5,0,1,0,-->,43.509033,-56.270832,26.356199
0.5,0,1,0.5,0,1,0.5,-->,30.882608,-28.064444,11.681508
0.5,0,1,0.5,0,1,1,-->,19.852903,-4.214065,-0.087403
0.5,0,1,0.5,0.5,0,0,-->,47.863605,5.685749,42.706509
0.5,0,1,0.5,0.5,0,0.5,-->,35.416092,9.889812,26.535595
0.5,0,1,0.5,0.5,0,1,-->,21.329563,12.453232,5.652630
0.5,0,1,0.5,0.5,0.5,0,-->,42.824005,-14.584180,37.361504
0.5,0,1,0.5,0.5,0.5,0.5,-->,30.536533,-3.201001,21.090229
0.5,0,1,0.5,0.5,0.5,1,-->,19.531734,9.311423,1.678575
0.5,0,1,0.5,0.5,1,0,-->,36.369644,-33.790241,25.605268
0.5,0,1,0.5,0.5,1,0.5,-->,30.801348,-24.300531,16.391781
0.5,0,1,0.5,0.5,1,1,-->,16.931950,-0.891508,-1.301833
0.5,0,1,0.5,1,0,0,-->,42.310101,23.400915,45.443047
0.5,0,1,0.5,1,0,0.5,-->,32.464821,24.477093,28.071457
0.5,0,1,0.5,1,0,1,-->,22.993240,16.071291,13.097145
0.5,0,1,0.5,1,0.5,0,-->,37.456322,7.063509,36.219040
0.5,0,1,0.5,1,0.5,0.5,-->,33.083408,16.530199,29.281069
0.5,0,1,0.5,1,0.5,1,-->,19.792440,16.149567,7.966554
0.5,0,1,0.5,1,1,0,-->,28.037844,-5.865366,20.782339
0.5,0,1,0.5,1,1,0.5,-->,24.035532,-0.502949,14.713715
0.5,0,1,0.5,1,1,1,-->,15.672440,4.533392,0.596028
0.5,0,1,1,0,0,0,-->,20.337730,-6.653070,3.777218
0.5,0,1,1,0,0,0.5,-->,14.277961,1.147242,-1.851200
0.5,0,1,1,0,0,1,-->,14.409145,7.240200,0.646338
0.5,0,1,1,0,0.5,0,-->,19.996054,-9.653869,3.485211
0.5,0,1,1,0,0.5,0.5,-->,18.287453,-2.487407,1.748932
0.5,0,1,1,0,0.5,1,-->,15.632921,4.904648,-0.311986
0.5,0,1,1,0,1,0,-->,19.462559,-12.343015,4.795153
0.5,0,1,1,0,1,0.5,-->,18.012501,-6.934681,2.730480
0.5,0,1,1,0,1,1,-->,15.424850,2.893932,-0.494072
0.5,0,1,1,0.5,0,0,-->,18.718729,0.026120,6.127483
0.5,0,1,1,0.5,0,0.5,-->,18.204325,-0.856725,2.438565
0.5,0,1,1,0.5,0,1,-->,15.621278,5.317427,-0.026165
0.5,0,1,1,0.5,0.5,0,-->,18.757729,-2.703099,3.070532
0.5,0,1,1,0.5,0.5,0.5,-->,18.307705,-1.606941,1.946917
0.5,0,1,1,0.5,0.5,1,-->,15.591091,4.877502,-0.462169
0.5,0,1,1,0.5,1,0,-->,18.093929,-7.214012,3.359346
0.5,0,1,1,0.5,1,0.5,-->,17.672316,-6.089971,2.441209
0.5,0,1,1,0.5,1,1,-->,15.250714,3.063677,-0.589280
0.5,0,1,1,1,0,0,-->,20.596031,2.420478,12.112709
0.5,0,1,1,1,0,0.5,-->,20.115606,3.632993,8.629679
0.5,0,1,1,1,0,1,-->,15.994288,5.721528,1.345622
0.5,0,1,1,1,0.5,0,-->,20.318861,2.564536,8.918464
0.5,0,1,1,1,0.5,0.5,-->,19.964542,3.399913,7.862135
0.5,0,1,1,1,0.5,1,-->,15.863134,5.433488,0.952221
0.5,0,1,1,1,1,0,-->,17.224819,-2.268357,3.482931
0.5,0,1,1,1,1,0.5,-->,16.881445,-1.462564,2.655609
0.5,0,1,1,1,1,1,-->,14.762905,0.528453,-2.318833
0.5,0.5,0,0,0,0,0,-->,68.827942,18.189722,-42.555042
0.5,0.5,0,0,0,0,0.5,-->,44.992832,28.878094,-49.838135
0.5,0.5,0,0,0,0,1,-->,24.381966,45.094727,-60.523964
0.5,0.5,0,0,0,0.5,0,-->,56.911285,-12.223009,-34.326424
0.5,0.5,0,0,0,0.5,0.5,-->,38.128792,6.645122,-40.108860
0.5,0.5,0,0,0,0.5,1,-->,22.150328,27.417574,-48.257046
0.5,0.5,0,0,0,1,0,-->,46.566803,-45.796314,-27.607199
0.5,0.5,0,0,0,1,0.5,-->,31.746948,-14.693857,-32.985611
0.5,0.5,0,0,0,1,1,-->,20.641748,13.491792,-38.599030
0.5,0.5,0,0,0.5,0,0,-->,55.977726,37.595844,-1.364644
0.5,0.5,0,0,0.5,0,0.5,-->,37.826286,34.924328,-12.290630
0.5,0.5,0,0,0.5,0,1,-->,22.772398,33.039082,-24.200727
0.5,0.5,0,0,0.5,0.5,0,-->,44.123898,11.013656,-4.143267
0.5,0.5,0,0,0.5,0.5,0.5,-->,33.528660,17.789286,-12.651033
0.5,0.5,0,0,0.5,0.5,1,-->,19.230988,23.185953,-22.654140
0.5,0.5,0,0,0.5,1,0,-->,33.351795,-19.953163,-9.017167
0.5,0.5,0,0,0.5,1,0.5,-->,26.369650,-6.554496,-11.544678
0.5,0.5,0,0,0.5,1,1,-->,18.260477,11.107800,-17.282772
0.5,0.5,0,0,1,0,0,-->,49.024635,51.290188,45.811993
0.5,0.5,0,0,1,0,0.5,-->,34.213673,40.205044,22.718578
0.5,0.5,0,0,1,0,1,-->,22.573988,29.854155,6.144278
0.5,0.5,0,0,1,0.5,0,-->,36.742886,29.223009,26.791489
0.5,0.5,0,0,1,0.5,0.5,-->,28.350521,27.071381,15.808831
0.5,0.5,0,0,1,0.5,1,-->,19.906757,15.853152,2.486305
0.5,0.5,0,0,1,1,0,-->,25.342470,2.568259,11.019036
0.5,0.5,0,0,1,1,0.5,-->,18.570812,11.842908,0.264413
0.5,0.5,0,0,1,1,1,-->,14.785377,10.074893,-4.766373
0.5,0.5,0,0.5,0,0,0,-->,47.794331,11.156361,-27.470245
0.5,0.5,0,0.5,0,0,0.5,-->,32.654537,18.252403,-31.078342
0.5,0.5,0,0.5,0,0,1,-->,19.501507,27.392326,-36.380722
0.5,0.5,0,0.5,0,0.5,0,-->,39.769283,-8.049701,-21.844542
0.5,0.5,0,0.5,0,0.5,0.5,-->,28.536999,5.000980,-25.880228
0.5,0.5,0,0.5,0,0.5,1,-->,17.752323,15.633631,-27.512264
0.5,0.5,0,0.5,0,1,0,-->,31.966484,-27.615421,-18.205698
0.5,0.5,0,0.5,0,1,0.5,-->,23.555538,-9.206161,-19.424976
0.5,0.5,0,0.5,0,1,1,-->,17.637762,8.444918,-18.547945
0.5,0.5,0,0.5,0.5,0,0,-->,40.095699,22.099636,1.618462
0.5,0.5,0,0.5,0.5,0,0.5,-->,29.182676,25.384045,-6.984162
0.5,0.5,0,0.5,0.5,0,1,-->,18.369530,21.781746,-14.055461
0.5,0.5,0,0.5,0.5,0.5,0,-->,34.328205,5.812099,-0.072629
0.5,0.5,0,0.5,0.5,0.5,0.5,-->,24.857475,11.614571,-6.508511
0.5,0.5,0,0.5,0.5,0.5,1,-->,16.639391,13.207126,-10.987840
0.5,0.5,0,0.5,0.5,1,0,-->,27.262875,-15.602890,-0.968560
0.5,0.5,0,0.5,0.5,1,0.5,-->,20.371073,-3.278213,-5.220000
0.5,0.5,0,0.5,0.5,1,1,-->,16.698196,7.565538,-14.701335
0.5,0.5,0,0.5,1,0,0,-->,35.195351,30.442043,28.974623
0.5,0.5,0,0.5,1,0,0.5,-->,26.021063,29.689213,15.638798
0.5,0.5,0,0.5,1,0,1,-->,19.703451,13.430767,5.421344
0.5,0.5,0,0.5,1,0.5,0,-->,29.206938,16.783920,20.971371
0.5,0.5,0,0.5,1,0.5,0.5,-->,21.952585,16.609221,9.860235
0.5,0.5,0,0.5,1,0.5,1,-->,18.125065,14.090472,1.535976
0.5,0.5,0,0.5,1,1,0,-->,19.619516,3.966691,5.276009
0.5,0.5,0,0.5,1,1,0.5,-->,19.556511,4.109837,4.055971
0.5,0.5,0,0.5,1,1,1,-->,14.905625,7.398940,-3.071276
0.5,0.5,0,1,0,0,0,-->,19.153975,4.310223,-3.106082
0.5,0.5,0,1,0,0,0.5,-->,16.801096,7.647203,-4.096834
0.5,0.5,0,1,0,0,1,-->,15.735161,9.773190,-3.947206
0.5,0.5,0,1,0,0.5,0,-->,14.583869,-1.385778,-3.743225
0.5,0.5,0,1,0,0.5,0.5,-->,17.892092,1.448231,-3.489041
0.5,0.5,0,1,0,0.5,1,-->,15.578905,6.896562,-4.510267
0.5,0.5,0,1,0,1,0,-->,14.209311,-0.983836,-3.664561
0.5,0.5,0,1,0,1,0.5,-->,16.528946,-2.819836,-2.641094
0.5,0.5,0,1,0,1,1,-->,15.219511,4.941278,-3.159933
0.5,0.5,0,1,0.5,0,0,-->,17.422867,4.164599,6.604980
0.5,0.5,0,1,0.5,0,0.5,-->,18.333929,2.153413,-1.213001
0.5,0.5,0,1,0.5,0,1,-->,15.672985,6.746181,-3.503488
0.5,0.5,0,1,0.5,0.5,0,-->,18.436441,0.780060,-1.357964
0.5,0.5,0,1,0.5,0.5,0.5,-->,18.483240,0.913798,-2.374014
0.5,0.5,0,1,0.5,0.5,1,-->,15.575844,6.158915,-3.985986
0.5,0.5,0,1,0.5,1,0,-->,16.969107,-3.693341,-1.399176
0.5,0.5,0,1,0.5,1,0.5,-->,16.909178,-3.765811,-1.804652
0.5,0.5,0,1,0.5,1,1,-->,15.210242,4.334891,-2.627589
0.5,0.5,0,1,1,0,0,-->,19.617947,1.501793,8.313673
0.5,0.5,0,1,1,0,0.5,-->,19.635178,2.881910,7.087615
0.5,0.5,0,1,1,0,1,-->,15.737377,5.829016,0.522662
0.5,0.5,0,1,1,0.5,0,-->,19.831663,2.321470,7.186592
0.5,0.5,0,1,1,0.5,0.5,-->,19.630617,2.597381,6.728398
0.5,0.5,0,1,1,0.5,1,-->,15.665134,5.369074,0.123136
0.5,0.5,0,1,1,1,0,-->,16.762857,-1.677200,2.225183
0.5,0.5,0,1,1,1,0.5,-->,16.528973,-1.575958,1.734356
0.5,0.5,0,1,1,1,1,-->,15.178212,3.761973,-0.410674
0.5,0.5,0.5,0,0,0,0,-->,65.964554,8.872607,-0.989665
0.5,0.5,0.5,0,0,0,0.5,-->,43.706989,19.162470,-15.523611
0.5,0.5,0.5,0,0,0,1,-->,24.288448,31.715021,-32.273705
0.5,0.5,0.5,0,0,0.5,0,-->,54.648544,-18.878847,-0.943968
0.5,0.5,0.5,0,0,0.5,0.5,-->,39.910530,1.168794,-12.512258
0.5,0.5,0.5,0,0,0.5,1,-->,20.978741,19.148487,-27.527706
0.5,0.5,0.5,0,0,1,0,-->,45.480030,-50.961384,-1.836669
0.5,0.5,0.5,0,0,1,0.5,-->,32.454338,-22.770720,-10.758135
0.5,0.5,0.5,0,0,1,1,-->,19.756168,6.708365,-20.983461
0.5,0.5,0.5,0,0.5,0,0,-->,55.074871,34.599277,25.647081
0.5,0.5,0.5,0,0.5,0,0.5,-->,40.829823,34.904510,10.946247
0.5,0.5,0.5,0,0.5,0,1,-->,21.853046,32.251141,-10.128911
0.5,0.5,0.5,0,0.5,0.5,0,-->,48.637112,7.547467,21.119503
0.5,0.5,0.5,0,0.5,0.5,0.5,-->,34.599377,15.039372,8.464509
0.5,0.5,0.5,0,0.5,0.5,1,-->,19.169722,19.664667,-8.130766
0.5,0.5,0.5,0,0.5,1,0,-->,38.241276,-26.913803,13.888794
0.5,0.5,0.5,0,0.5,1,0.5,-->,27.352705,-9.544981,4.700857
0.5,0.5,0.5,0,0.5,1,1,-->,17.865572,8.684290,-26.356146
0.5,0.5,0.5,0,1,0,0,-->,49.811138,49.811062,52.416340
0.5,0.5,0.5,0,1,0,0.5,-->,35.958946,46.504860,31.355227
0.5,0.5,0.5,0,1,0,1,-->,22.717339,26.966917,9.225791
0.5,0.5,0.5,0,1,0.5,0,-->,41.001003,28.143972,39.088329
0.5,0.5,0.5,0,1,0.5,0.5,-->,29.575201,26.918629,21.370182
0.5,0.5,0.5,0,1,0.5,1,-->,20.389853,24.774496,3.520853
0.5,0.5,0.5,0,1,1,0,-->,27.458168,3.304417,16.603384
0.5,0.5,0.5,0,1,1,0.5,-->,25.071262,5.104882,11.480985
0.5,0.5,0.5,0,1,1,1,-->,14.804154,10.018945,-4.731536
0.5,0.5,0.5,0.5,0,0,0,-->,45.492290,4.748917,-0.010115
0.5,0.5,0.5,0.5,0,0,0.5,-->,32.822083,15.625256,-7.707849
0.5,0.5,0.5,0.5,0,0,1,-->,18.580145,20.582546,-17.499863
0.5,0.5,0.5,0.5,0,0.5,0,-->,39.926495,-10.293397,2.233254
0.5,0.5,0.5,0.5,0,0.5,0.5,-->,28.426706,1.968956,-6.114594
0.5,0.5,0.5,0.5,0,0.5,1,-->,17.238972,11.456880,-13.209094
0.5,0.5,0.5,0.5,0,1,0,-->,32.149261,-30.390944,1.974321
0.5,0.5,0.5,0.5,0,1,0.5,-->,23.296463,-11.917665,-4.439013
0.5,0.5,0.5,0.5,0,1,1,-->,17.238018,5.837102,-8.650114
0.5,0.5,0.5,0.5,0.5,0,0,-->,42.013580,19.934179,20.874218
0.5,0.5,0.5,0.5,0.5,0,0.5,-->,29.505041,23.164173,8.342171
0.5,0.5,0.5,0.5,0.5,0,1,-->,17.918600,18.489603,-4.079666
0.5,0.5,0.5,0.5,0.5,0.5,0,-->,34.889812,4.328446,15.695339
0.5,0.5,0.5,0.5,0.5,0.5,0.5,-->,24.950903,9.855052,6.484162
0.5,0.5,0.5,0.5,0.5,0.5,1,-->,17.670954,17.383314,-16.256638
0.5,0.5,0.5,0.5,0.5,1,0,-->,27.476879,-16.602936,10.264822
0.5,0.5,0.5,0.5,0.5,1,0.5,-->,27.290192,-16.493349,-1.531759
0.5,0.5,0.5,0.5,0.5,1,1,-->,16.530169,6.857211,-16.390184
0.5,0.5,0.5,0.5,1,0,0,-->,36.692863,33.552967,35.228981
0.5,0.5,0.5,0.5,1,0,0.5,-->,26.306170,29.871588,18.263590
0.5,0.5,0.5,0.5,1,0,1,-->,19.672264,11.987908,6.565356
0.5,0.5,0.5,0.5,1,0.5,0,-->,29.831072,17.411404,23.770939
0.5,0.5,0.5,0.5,1,0.5,0.5,-->,29.592587,21.259274,21.469326
0.5,0.5,0.5,0.5,1,0.5,1,-->,18.176622,16.149460,1.839306
0.5,0.5,0.5,0.5,1,1,0,-->,19.641998,4.732106,6.102176
0.5,0.5,0.5,0.5,1,1,0.5,-->,20.983707,2.618933,6.722926
0.5,0.5,0.5,0.5,1,1,1,-->,14.877144,7.361778,-3.053965
0.5,0.5,0.5,1,0,0,0,-->,19.260010,1.254335,0.924817
0.5,0.5,0.5,1,0,0,0.5,-->,18.469582,1.546464,-2.139338
0.5,0.5,0.5,1,0,0,1,-->,15.628797,6.677952,-3.859559
0.5,0.5,0.5,1,0,0.5,0,-->,18.753801,0.019417,-2.001725
0.5,0.5,0.5,1,0,0.5,0.5,-->,18.585735,0.692285,-2.547452
0.5,0.5,0.5,1,0,0.5,1,-->,15.585563,6.103605,-4.015526
0.5,0.5,0.5,1,0,1,0,-->,17.196835,-4.388407,-1.523278
0.5,0.5,0.5,1,0,1,0.5,-->,16.981255,-3.953665,-1.796642
0.5,0.5,0.5,1,0,1,1,-->,15.225132,4.284217,-2.609791
0.5,0.5,0.5,1,0.5,0,0,-->,19.031130,1.049435,-0.705007
0.5,0.5,0.5,1,0.5,0,0.5,-->,18.647945,0.929970,-2.205425
0.5,0.5,0.5,1,0.5,0,1,-->,15.583220,6.120871,-3.945807
0.5,0.5,0.5,1,0.5,0.5,0,-->,18.838655,0.714947,-2.202765
0.5,0.5,0.5,1,0.5,0.5,0.5,-->,18.666866,0.741500,-2.536212
0.5,0.5,0.5,1,0.5,0.5,1,-->,15.569875,6.044799,-4.006490
0.5,0.5,0.5,1,0.5,1,0,-->,17.169685,-3.911662,-1.637226
0.5,0.5,0.5,1,0.5,1,0.5,-->,16.991190,-3.910971,-1.773456
0.5,0.5,0.5,1,0.5,1,1,-->,15.210323,4.275857,-2.583193
0.5,0.5,0.5,1,1,0,0,-->,20.153416,2.604874,7.742548
0.5,0.5,0.5,1,1,0,0.5,-->,19.699642,2.655533,6.835430
0.5,0.5,0.5,1,1,0,1,-->,15.670413,5.351154,0.118941
0.5,0.5,0.5,1,1,0.5,0,-->,19.870493,2.645821,6.892047
0.5,0.5,0.5,1,1,0.5,0.5,-->,19.664545,2.650289,6.710296
0.5,0.5,0.5,1,1,0.5,1,-->,15.661695,5.320011,0.083573
0.5,0.5,0.5,1,1,1,0,-->,16.714787,-1.527366,1.800488
0.5,0.5,0.5,1,1,1,0.5,-->,16.527143,-1.546000,1.673164
0.5,0.5,0.5,1,1,1,1,-->,15.178113,3.761973,-0.406145
0.5,0.5,1,0,0,0,0,-->,63.240845,5.441908,42.881268
0.5,0.5,1,0,0,0,0.5,-->,42.548954,14.564459,18.179022
0.5,0.5,1,0,0,0,1,-->,24.903049,25.009155,-5.334739
0.5,0.5,1,0,0,0.5,0,-->,53.174232,-20.740746,30.963558
0.5,0.5,1,0,0,0.5,0.5,-->,38.667919,-2.081110,15.886332
0.5,0.5,1,0,0,0.5,1,-->,22.351580,10.410294,-5.071117
0.5,0.5,1,0,0,1,0,-->,44.850521,-51.348499,21.285461
0.5,0.5,1,0,0,1,0.5,-->,32.628670,-23.603619,7.003472
0.5,0.5,1,0,0,1,1,-->,20.683481,-0.826076,-6.342521
0.5,0.5,1,0,0.5,0,0,-->,54.529518,33.657112,49.682327
0.5,0.5,1,0,0.5,0,0.5,-->,40.179237,33.440617,30.865614
0.5,0.5,1,0,0.5,0,1,-->,23.674788,26.318413,5.789924
0.5,0.5,1,0,0.5,0.5,0,-->,48.135399,6.214149,41.778053
0.5,0.5,1,0,0.5,0.5,0.5,-->,33.840847,13.754707,23.236628
0.5,0.5,1,0,0.5,0.5,1,-->,22.469503,19.862074,-1.414041
0.5,0.5,1,0,0.5,1,0,-->,39.302662,-26.086147,26.259533
0.5,0.5,1,0,0.5,1,0.5,-->,41.714821,-35.107746,23.474844
0.5,0.5,1,0,0.5,1,1,-->,18.684134,-0.147577,-4.893970
0.5,0.5,1,0,1,0,0,-->,50.201946,48.824680,56.874809
0.5,0.5,1,0,1,0,0.5,-->,37.462463,46.739353,34.671337
0.5,0.5,1,0,1,0,1,-->,25.351307,29.353342,14.875631
0.5,0.5,1,0,1,0.5,0,-->,42.839729,27.376444,42.910316
0.5,0.5,1,0,1,0.5,0.5,-->,45.762745,36.598640,47.469082
0.5,0.5,1,0,1,0.5,1,-->,23.224611,27.515076,10.284202
0.5,0.5,1,0,1,1,0,-->,31.281734,3.525717,23.498995
0.5,0.5,1,0,1,1,0.5,-->,29.375162,4.848563,19.993835
0.5,0.5,1,0,1,1,1,-->,16.791466,10.682891,-0.398302
0.5,0.5,1,0.5,0,0,0,-->,43.800533,1.647143,27.943846
0.5,0.5,1,0.5,0,0,0.5,-->,31.877926,12.433563,14.781822
0.5,0.5,1,0.5,0,0,1,-->,20.172382,12.520807,0.165253
0.5,0.5,1,0.5,0,0.5,0,-->,38.770603,-11.829708,24.486395
0.5,0.5,1,0.5,0,0.5,0.5,-->,27.632832,-0.296650,11.281192
0.5,0.5,1,0.5,0,0.5,1,-->,18.806744,3.949668,0.274763
0.5,0.5,1,0.5,0,1,0,-->,32.639572,-29.424839,15.072659
0.5,0.5,1,0.5,0,1,0.5,-->,23.935682,-11.822495,4.428852
0.5,0.5,1,0.5,0,1,1,-->,17.742342,1.028080,-3.617391
0.5,0.5,1,0.5,0.5,0,0,-->,41.180000,18.029766,36.393467
0.5,0.5,1,0.5,0.5,0,0.5,-->,29.002411,21.607533,19.277103
0.5,0.5,1,0.5,0.5,0,1,-->,19.761097,12.431694,5.055895
0.5,0.5,1,0.5,0.5,0.5,0,-->,34.396233,3.036318,27.194708
0.5,0.5,1,0.5,0.5,0.5,0.5,-->,34.703053,4.585556,21.793890
0.5,0.5,1,0.5,0.5,0.5,1,-->,19.282991,12.961811,-0.967717
0.5,0.5,1,0.5,0.5,1,0,-->,28.571165,-15.486465,15.055469
0.5,0.5,1,0.5,0.5,1,0.5,-->,31.279888,-22.875896,14.626837
0.5,0.5,1,0.5,0.5,1,1,-->,17.014158,1.456241,-3.244023
0.5,0.5,1,0.5,1,0,0,-->,38.172131,33.299732,37.502110
0.5,0.5,1,0.5,1,0,0.5,-->,28.022839,30.250944,20.543331
0.5,0.5,1,0.5,1,0,1,-->,20.567736,18.847574,7.206533
0.5,0.5,1,0.5,1,0.5,0,-->,31.711515,17.463110,26.233541
0.5,0.5,1,0.5,1,0.5,0.5,-->,34.536747,23.476395,30.221655
0.5,0.5,1,0.5,1,0.5,1,-->,19.835972,18.221275,5.775318
0.5,0.5,1,0.5,1,1,0,-->,25.848543,1.909983,14.278046
0.5,0.5,1,0.5,1,1,0.5,-->,23.939049,2.401160,12.174311
0.5,0.5,1,0.5,1,1,1,-->,15.972914,6.602381,-1.251243
0.5,0.5,1,1,0,0,0,-->,19.329880,-1.418008,4.266814
0.5,0.5,1,1,0,0,0.5,-->,18.333595,-0.829534,1.877776
0.5,0.5,1,1,0,0,1,-->,15.637274,5.501550,-0.610278
0.5,0.5,1,1,0,0.5,0,-->,18.718575,-1.940563,2.129611
0.5,0.5,1,1,0,0.5,0.5,-->,18.350838,-1.370807,1.650593
0.5,0.5,1,1,0,0.5,1,-->,15.623312,5.002895,-0.682063
0.5,0.5,1,1,0,1,0,-->,18.016001,-6.338197,2.467230
0.5,0.5,1,1,0,1,0.5,-->,17.671524,-5.806940,2.149871
0.5,0.5,1,1,0,1,1,-->,15.276587,3.197004,-0.765537
0.5,0.5,1,1,0.5,0,0,-->,18.842848,-1.151665,2.778631
0.5,0.5,1,1,0.5,0,0.5,-->,18.358568,-1.199314,1.755741
0.5,0.5,1,1,0.5,0,1,-->,15.616497,5.032609,-0.670877
0.5,0.5,1,1,0.5,0.5,0,-->,18.553066,-1.286679,1.823591
0.5,0.5,1,1,0.5,0.5,0.5,-->,18.329887,-1.273623,1.609236
0.5,0.5,1,1,0.5,0.5,1,-->,15.611807,4.983957,-0.687634
0.5,0.5,1,1,0.5,1,0,-->,17.829077,-5.686273,2.238118
0.5,0.5,1,1,0.5,1,0.5,-->,17.626793,-5.667327,2.115810
0.5,0.5,1,1,0.5,1,1,-->,15.260449,3.230488,-0.763356
0.5,0.5,1,1,1,0,0,-->,20.466488,3.725054,8.523011
0.5,0.5,1,1,1,0,0.5,-->,19.998568,3.684563,7.602549
0.5,0.5,1,1,1,0,1,-->,15.880205,5.564703,0.755012
0.5,0.5,1,1,1,0.5,0,-->,20.164146,3.708426,7.650183
0.5,0.5,1,1,1,0.5,0.5,-->,19.952602,3.677815,7.468339
0.5,0.5,1,1,1,0.5,1,-->,15.872027,5.556693,0.744388
0.5,0.5,1,1,1,1,0,-->,17.066364,-1.140402,2.475195
0.5,0.5,1,1,1,1,0.5,-->,16.879284,-1.168863,2.369530
0.5,0.5,1,1,1,1,1,-->,14.786717,0.682846,-2.483972
0.5,1,0,0,0,0,0,-->,45.176701,61.231319,-39.158524
0.5,1,0,0,0,0,0.5,-->,32.404060,49.933296,-41.176796
0.5,1,0,0,0,0,1,-->,22.453176,41.943192,-44.960129
0.5,1,0,0,0,0.5,0,-->,35.159904,33.402206,-37.354244
0.5,1,0,0,0,0.5,0.5,-->,26.016367,29.958755,-36.782543
0.5,1,0,0,0,0.5,1,-->,19.419439,27.845308,-37.460632
0.5,1,0,0,0,1,0,-->,26.693422,2.314615,-37.179844
0.5,1,0,0,0,1,0.5,-->,21.017334,11.536492,-34.092182
0.5,1,0,0,0,1,1,-->,18.126070,17.495363,-32.329456
0.5,1,0,0,0.5,0,0,-->,43.404739,57.415154,2.200302
0.5,1,0,0,0.5,0,0.5,-->,31.376595,44.602806,-6.460634
0.5,1,0,0,0.5,0,1,-->,22.077766,33.982361,-14.829981
0.5,1,0,0,0.5,0.5,0,-->,32.671211,33.667645,-4.859802
0.5,1,0,0,0.5,0.5,0.5,-->,24.894999,32.901455,-11.070812
0.5,1,0,0,0.5,0.5,1,-->,19.511808,22.300585,-14.981639
0.5,1,0,0,0.5,1,0,-->,22.592060,6.397314,-13.629101
0.5,1,0,0,0.5,1,0.5,-->,17.224684,13.502416,-17.344816
0.5,1,0,0,0.5,1,1,-->,14.710101,14.340727,-21.595266
0.5,1,0,0,1,0,0,-->,42.506268,57.076092,36.230698
0.5,1,0,0,1,0,0.5,-->,30.721722,43.410172,18.085913
0.5,1,0,0,1,0,1,-->,22.708179,32.124973,6.081171
0.5,1,0,0,1,0.5,0,-->,31.244570,35.275414,19.048447
0.5,1,0,0,1,0.5,0.5,-->,26.766209,27.074528,12.681037
0.5,1,0,0,1,0.5,1,-->,20.185608,29.153502,2.922583
0.5,1,0,0,1,1,0,-->,21.869648,9.930334,5.003427
0.5,1,0,0,1,1,0.5,-->,18.686924,14.533149,0.595253
0.5,1,0,0,1,1,1,-->,14.375695,12.990720,-5.839382
0.5,1,0,0.5,0,0,0,-->,31.735573,39.508827,-25.510752
0.5,1,0,0.5,0,0,0.5,-->,24.346655,31.273941,-25.283470
0.5,1,0,0.5,0,0,1,-->,18.511778,25.421389,-26.005903
0.5,1,0,0.5,0,0.5,0,-->,25.813522,20.328096,-23.443548
0.5,1,0,0.5,0,0.5,0.5,-->,20.938555,19.544031,-20.831242
0.5,1,0,0.5,0,0.5,1,-->,18.387276,14.968879,-17.943466
0.5,1,0,0.5,0,1,0,-->,20.103130,1.580343,-22.718092
0.5,1,0,0.5,0,1,0.5,-->,15.642580,8.537663,-21.579346
0.5,1,0,0.5,0,1,1,-->,16.337326,10.947646,-15.204185
0.5,1,0,0.5,0.5,0,0,-->,31.923283,34.596680,3.127726
0.5,1,0,0.5,0.5,0,0.5,-->,23.304003,33.420994,-4.483015
0.5,1,0,0.5,0.5,0,1,-->,19.489309,19.797750,-7.650723
0.5,1,0,0.5,0.5,0.5,0,-->,25.396275,21.948936,-1.652243
0.5,1,0,0.5,0.5,0.5,0.5,-->,19.534622,20.289961,-5.328644
0.5,1,0,0.5,0.5,0.5,1,-->,17.523064,17.868017,-12.503928
0.5,1,0,0.5,0.5,1,0,-->,18.045008,4.702392,-9.016681
0.5,1,0,0.5,0.5,1,0.5,-->,16.790459,7.085594,-12.893651
0.5,1,0,0.5,0.5,1,1,-->,14.687441,9.982635,-12.973986
0.5,1,0,0.5,1,0,0,-->,31.388193,33.844124,23.956795
0.5,1,0,0.5,1,0,0.5,-->,26.190224,26.469540,15.133212
0.5,1,0,0.5,1,0,1,-->,21.002726,18.072552,7.445313
0.5,1,0,0.5,1,0.5,0,-->,27.634462,17.652903,17.507174
0.5,1,0,0.5,1,0.5,0.5,-->,26.043198,24.218464,14.301786
0.5,1,0,0.5,1,0.5,1,-->,18.185127,18.902672,1.812085
0.5,1,0,0.5,1,1,0,-->,18.510450,4.951917,3.257968
0.5,1,0,0.5,1,1,0.5,-->,17.306561,8.188249,0.516461
0.5,1,0,0.5,1,1,1,-->,14.543256,8.059649,-4.570562
0.5,1,0,1,0,0,0,-->,18.156029,9.110155,0.779543
0.5,1,0,1,0,0,0.5,-->,17.066540,8.326349,-1.680065
0.5,1,0,1,0,0,1,-->,15.674417,10.135508,-2.851823
0.5,1,0,1,0,0.5,0,-->,14.695057,1.829564,-1.698456
0.5,1,0,1,0,0.5,0.5,-->,16.735546,6.169220,-0.610764
0.5,1,0,1,0,0.5,1,-->,15.438841,7.109031,-2.872555
0.5,1,0,1,0,1,0,-->,13.267560,1.711998,-3.117254
0.5,1,0,1,0,1,0.5,-->,14.769985,2.112345,-3.204816
0.5,1,0,1,0,1,1,-->,14.953472,5.000250,-2.591005
0.5,1,0,1,0.5,0,0,-->,19.049543,3.568837,8.291375
0.5,1,0,1,0.5,0,0.5,-->,17.384182,6.279338,1.536371
0.5,1,0,1,0.5,0,1,-->,15.515646,6.939271,-1.946620
0.5,1,0,1,0.5,0.5,0,-->,17.309452,5.504118,1.306697
0.5,1,0,1,0.5,0.5,0.5,-->,17.076649,5.972953,0.485956
0.5,1,0,1,0.5,0.5,1,-->,15.407248,6.317518,-2.266943
0.5,1,0,1,0.5,1,0,-->,15.141789,1.574081,-2.162403
0.5,1,0,1,0.5,1,0.5,-->,15.009282,1.636367,-2.578086
0.5,1,0,1,0.5,1,1,-->,14.937348,4.468066,-2.018368
0.5,1,0,1,1,0,0,-->,19.990824,3.646550,11.402862
0.5,1,0,1,1,0,0.5,-->,19.410395,5.447471,7.202293
0.5,1,0,1,1,0,1,-->,15.832180,6.347506,0.732669
0.5,1,0,1,1,0.5,0,-->,19.549927,5.074453,7.096477
0.5,1,0,1,1,0.5,0.5,-->,19.267197,5.261767,6.331060
0.5,1,0,1,1,0.5,1,-->,15.734391,5.922142,0.390961
0.5,1,0,1,1,1,0,-->,16.334209,0.000068,1.405887
0.5,1,0,1,1,1,0.5,-->,16.079468,0.034966,0.965277
0.5,1,0,1,1,1,1,-->,14.786092,0.909238,-2.737464
0.5,1,0.5,0,0,0,0,-->,44.524387,53.346424,-8.701510
0.5,1,0.5,0,0,0,0.5,-->,32.237499,43.513950,-15.790372
0.5,1,0.5,0,0,0,1,-->,22.481279,34.903763,-22.793221
0.5,1,0.5,0,0,0.5,0,-->,34.797298,27.671324,-12.579643
0.5,1,0.5,0,0,0.5,0.5,-->,27.565531,27.328886,-14.883535
0.5,1,0.5,0,0,0.5,1,-->,20.572407,20.950047,-19.318331
0.5,1,0.5,0,0,1,0,-->,26.049238,-3.455269,-17.253103
0.5,1,0.5,0,0,1,0.5,-->,19.489691,6.723732,-20.385952
0.5,1,0.5,0,0,1,1,-->,17.646868,11.571238,-18.993502
0.5,1,0.5,0,0.5,0,0,-->,43.302929,54.852070,20.314022
0.5,1,0.5,0,0.5,0,0.5,-->,30.904461,51.592911,6.375929
0.5,1,0.5,0,0.5,0,1,-->,22.096710,31.920498,-5.237107
0.5,1,0.5,0,0.5,0.5,0,-->,34.450443,35.088360,10.718594
0.5,1,0.5,0,0.5,0.5,0.5,-->,25.193468,32.164612,2.666066
0.5,1,0.5,0,0.5,0.5,1,-->,19.138100,29.854307,-21.792370
0.5,1,0.5,0,0.5,1,0,-->,23.422054,5.639650,-2.810056
0.5,1,0.5,0,0.5,1,0.5,-->,19.649427,9.159659,-19.825413
0.5,1,0.5,0,0.5,1,1,-->,14.637634,13.880253,-20.505274
0.5,1,0.5,0,1,0,0,-->,42.602001,56.681339,41.855736
0.5,1,0.5,0,1,0,0.5,-->,32.866394,47.572315,25.279686
0.5,1,0.5,0,1,0,1,-->,23.401842,30.833620,9.833136
0.5,1,0.5,0,1,0.5,0,-->,35.354969,34.890038,28.783524
0.5,1,0.5,0,1,0.5,0.5,-->,34.533943,45.698181,26.434628
0.5,1,0.5,0,1,0.5,1,-->,20.195368,28.996876,3.251843
0.5,1,0.5,0,1,1,0,-->,22.972570,10.802585,8.520595
0.5,1,0.5,0,1,1,0.5,-->,18.817455,14.701738,1.039069
0.5,1,0.5,0,1,1,1,-->,14.367291,12.977345,-5.757634
0.5,1,0.5,0.5,0,0,0,-->,31.479216,32.779602,-5.156202
0.5,1,0.5,0.5,0,0,0.5,-->,24.442394,30.760878,-7.236955
0.5,1,0.5,0.5,0,0,1,-->,19.646959,19.204481,-9.844763
0.5,1,0.5,0.5,0,0.5,0,-->,27.159060,16.795107,-3.402056
0.5,1,0.5,0.5,0,0.5,0.5,-->,20.998514,17.041729,-6.673810
0.5,1,0.5,0.5,0,0.5,1,-->,18.449289,11.778904,-7.884121
0.5,1,0.5,0.5,0,1,0,-->,19.014093,-0.277423,-10.313643
0.5,1,0.5,0.5,0,1,0.5,-->,14.816231,6.594523,-12.584210
0.5,1,0.5,0.5,0,1,1,-->,15.573072,9.092601,-12.390429
0.5,1,0.5,0.5,0.5,0,0,-->,31.507851,37.395702,13.779543
0.5,1,0.5,0.5,0.5,0,0.5,-->,23.026237,32.941032,4.756866
0.5,1,0.5,0.5,0.5,0,1,-->,19.519135,17.379545,-1.141208
0.5,1,0.5,0.5,0.5,0.5,0,-->,25.605202,21.646929,8.194116
0.5,1,0.5,0.5,0.5,0.5,0.5,-->,24.321774,26.457335,-2.395186
0.5,1,0.5,0.5,0.5,0.5,1,-->,17.397516,19.333006,-13.303147
0.5,1,0.5,0.5,0.5,1,0,-->,17.548311,4.658026,-3.339648
0.5,1,0.5,0.5,0.5,1,0.5,-->,17.180872,6.047672,-12.693880
0.5,1,0.5,0.5,0.5,1,1,-->,14.612505,9.805275,-12.621198
0.5,1,0.5,0.5,1,0,0,-->,33.572788,34.643646,28.591740
0.5,1,0.5,0.5,1,0,0.5,-->,26.580345,25.914936,17.088192
0.5,1,0.5,0.5,1,0,1,-->,19.039558,19.557512,3.570342
0.5,1,0.5,0.5,1,0.5,0,-->,28.284451,17.973637,19.503601
0.5,1,0.5,0.5,1,0.5,0.5,-->,27.839855,28.574095,17.680262
0.5,1,0.5,0.5,1,0.5,1,-->,18.019022,18.966675,1.574035
0.5,1,0.5,0.5,1,1,0,-->,19.799667,7.417407,3.563304
0.5,1,0.5,0.5,1,1,0.5,-->,17.440716,8.506550,0.594341
0.5,1,0.5,0.5,1,1,1,-->,14.537764,8.050970,-4.523171
0.5,1,0.5,1,0,0,0,-->,18.525253,5.412483,3.025937
0.5,1,0.5,1,0,0,0.5,-->,17.234781,6.473264,0.632066
0.5,1,0.5,1,0,0,1,-->,15.473909,6.852332,-2.239220
0.5,1,0.5,1,0,0.5,0,-->,17.342096,5.355531,0.713837
0.5,1,0.5,1,0,0.5,0.5,-->,17.082430,5.960611,0.334344
0.5,1,0.5,1,0,0.5,1,-->,15.412983,6.263135,-2.282781
0.5,1,0.5,1,0,1,0,-->,15.262583,1.139703,-2.332383
0.5,1,0.5,1,0,1,0.5,-->,15.042933,1.537831,-2.590025
0.5,1,0.5,1,0,1,1,-->,14.948628,4.421679,-2.005897
0.5,1,0.5,1,0.5,0,0,-->,17.716429,5.959136,1.818484
0.5,1,0.5,1,0.5,0,0.5,-->,17.165236,6.064193,0.599919
0.5,1,0.5,1,0.5,0,1,-->,15.409812,6.268030,-2.227030
0.5,1,0.5,1,0.5,0.5,0,-->,17.305283,5.996907,0.605832
0.5,1,0.5,1,0.5,0.5,0.5,-->,17.087555,6.036653,0.371141
0.5,1,0.5,1,0.5,0.5,1,-->,15.395753,6.191638,-2.245558
0.5,1,0.5,1,0.5,1,0,-->,15.227276,1.619405,-2.457442
0.5,1,0.5,1,0.5,1,0.5,-->,15.046762,1.603491,-2.568875
0.5,1,0.5,1,0.5,1,1,-->,14.936831,4.422742,-1.968294
0.5,1,0.5,1,1,0,0,-->,19.768711,5.260825,7.349877
0.5,1,0.5,1,1,0,0.5,-->,19.295317,5.280478,6.327078
0.5,1,0.5,1,1,0,1,-->,15.734664,5.902398,0.378802
0.5,1,0.5,1,1,0.5,0,-->,19.458073,5.318339,6.351109
0.5,1,0.5,1,1,0.5,0.5,-->,19.245245,5.285281,6.149978
0.5,1,0.5,1,1,0.5,1,-->,15.724804,5.879022,0.360654
0.5,1,0.5,1,1,1,0,-->,16.256495,0.095504,1.018626
0.5,1,0.5,1,1,1,0.5,-->,16.068457,0.048873,0.914497
0.5,1,0.5,1,1,1,1,-->,14.786092,0.909238,-2.732699
0.5,1,1,0,0,0,0,-->,44.247219,48.443123,20.607426
0.5,1,1,0,0,0,0.5,-->,31.731665,40.259518,6.390231
0.5,1,1,0,0,0,1,-->,23.335472,32.218662,-5.005980
0.5,1,1,0,0,0.5,0,-->,34.441891,24.176409,9.225426
0.5,1,1,0,0,0.5,0.5,-->,27.788363,24.768948,2.825566
0.5,1,1,0,0,0.5,1,-->,21.609085,19.289900,-4.945807
0.5,1,1,0,0,1,0,-->,26.738796,-5.224241,-1.295875
0.5,1,1,0,0,1,0.5,-->,20.293612,5.746515,-8.099820
0.5,1,1,0,0,1,1,-->,15.384500,11.719688,-8.863830
0.5,1,1,0,0.5,0,0,-->,43.049011,53.932430,35.461239
0.5,1,1,0,0.5,0,0.5,-->,31.245922,50.345695,17.142788
0.5,1,1,0,0.5,0,1,-->,23.368229,31.469494,4.706435
0.5,1,1,0,0.5,0.5,0,-->,34.838558,33.820213,21.970186
0.5,1,1,0,0.5,0.5,0.5,-->,35.057171,44.332306,18.278774
0.5,1,1,0,0.5,0.5,1,-->,20.444214,28.650410,-1.748917
0.5,1,1,0,0.5,1,0,-->,24.584373,5.848866,5.231248
0.5,1,1,0,0.5,1,0.5,-->,20.637720,8.897793,-2.357880
0.5,1,1,0,0.5,1,1,-->,14.781351,12.314463,-8.674524
0.5,1,1,0,1,0,0,-->,43.066776,56.570854,44.558193
0.5,1,1,0,1,0,0.5,-->,33.689785,49.025112,28.575523
0.5,1,1,0,1,0,1,-->,22.001860,31.979624,7.930288
0.5,1,1,0,1,0.5,0,-->,36.219070,36.131844,32.111309
0.5,1,1,0,1,0.5,0.5,-->,35.191463,46.642673,30.160145
0.5,1,1,0,1,0.5,1,-->,21.484322,31.360378,7.114381
0.5,1,1,0,1,1,0,-->,24.175934,18.448292,7.915545
0.5,1,1,0,1,1,0.5,-->,20.419033,18.779192,4.602001
0.5,1,1,0,1,1,1,-->,10.612489,9.911456,-14.567050
0.5,1,1,0.5,0,0,0,-->,31.335140,28.616789,12.472656
0.5,1,1,0.5,0,0,0.5,-->,25.017944,28.416100,5.926169
0.5,1,1,0.5,0,0,1,-->,20.737803,18.331257,1.362204
0.5,1,1,0.5,0,0.5,0,-->,27.707254,14.594340,9.826082
0.5,1,1,0.5,0,0.5,0.5,-->,21.682060,15.421161,2.773342
0.5,1,1,0.5,0,0.5,1,-->,18.677860,16.663998,-2.099836
0.5,1,1,0.5,0,1,0,-->,19.764963,-0.409869,-1.458119
0.5,1,1,0.5,0,1,0.5,-->,18.301550,4.148883,-3.378323
0.5,1,1,0.5,0,1,1,-->,15.146475,7.464813,-6.268394
0.5,1,1,0.5,0.5,0,0,-->,31.886494,35.647823,21.651642
0.5,1,1,0.5,0.5,0,0.5,-->,23.729837,31.660851,9.578366
0.5,1,1,0.5,0.5,0,1,-->,19.022734,19.949333,0.455603
0.5,1,1,0.5,0.5,0.5,0,-->,26.300323,20.609646,13.226992
0.5,1,1,0.5,0.5,0.5,0.5,-->,27.102392,27.330269,11.059725
0.5,1,1,0.5,0.5,0.5,1,-->,18.066757,19.115931,-1.468819
0.5,1,1,0.5,0.5,1,0,-->,20.559608,4.491838,1.057840
0.5,1,1,0.5,0.5,1,0.5,-->,18.268892,5.461333,-1.868003
0.5,1,1,0.5,0.5,1,1,-->,14.784591,7.828089,-6.151786
0.5,1,1,0.5,1,0,0,-->,34.253471,35.901562,31.429520
0.5,1,1,0.5,1,0,0.5,-->,28.535254,31.677402,20.537981
0.5,1,1,0.5,1,0,1,-->,19.251844,20.015509,4.061533
0.5,1,1,0.5,1,0.5,0,-->,30.257660,28.250763,22.015478
0.5,1,1,0.5,1,0.5,0.5,-->,28.406357,30.524286,19.878017
0.5,1,1,0.5,1,0.5,1,-->,18.944389,19.649681,3.580419
0.5,1,1,0.5,1,1,0,-->,20.594255,11.347932,3.963666
0.5,1,1,0.5,1,1,0.5,-->,18.295319,11.524151,1.967679
0.5,1,1,0.5,1,1,1,-->,12.405071,5.855478,-9.581642
0.5,1,1,1,0,0,0,-->,19.292112,2.425341,5.311286
0.5,1,1,1,0,0,0.5,-->,17.833616,3.125279,2.542466
0.5,1,1,1,0,0,1,-->,15.570376,6.474480,-0.444857
0.5,1,1,1,0,0.5,0,-->,18.034868,2.290859,2.633312
0.5,1,1,1,0,0.5,0.5,-->,17.622028,2.706922,2.146634
0.5,1,1,1,0,0.5,1,-->,15.519883,6.030527,-0.490896
0.5,1,1,1,0,1,0,-->,15.885723,0.061990,-0.420174
0.5,1,1,1,0,1,0.5,-->,15.572795,0.462595,-0.687778
0.5,1,1,1,0,1,1,-->,14.802018,1.289658,-2.502447
0.5,1,1,1,0.5,0,0,-->,18.164854,2.825110,3.202476
0.5,1,1,1,0.5,0,0.5,-->,17.627474,2.796870,2.217797
0.5,1,1,1,0.5,0,1,-->,15.512318,6.049177,-0.487293
0.5,1,1,1,0.5,0.5,0,-->,17.789822,2.787781,2.256904
0.5,1,1,1,0.5,0.5,0.5,-->,17.560116,2.765910,2.067537
0.5,1,1,1,0.5,0.5,1,-->,15.504180,6.019447,-0.490166
0.5,1,1,1,0.5,1,0,-->,15.735853,0.581270,-0.609814
0.5,1,1,1,0.5,1,0.5,-->,15.542791,0.557118,-0.708259
0.5,1,1,1,0.5,1,1,-->,14.789158,1.318871,-2.496269
0.5,1,1,1,1,0,0,-->,19.837828,6.450602,7.355714
0.5,1,1,1,1,0,0.5,-->,19.370308,6.376157,6.501337
0.5,1,1,1,1,0,1,-->,15.264474,2.664881,-1.549109
0.5,1,1,1,1,0.5,0,-->,19.534861,6.429643,6.546935
0.5,1,1,1,1,0.5,0.5,-->,19.326616,6.372843,6.397952
0.5,1,1,1,1,0.5,1,-->,15.259922,2.664774,-1.548637
0.5,1,1,1,1,1,0,-->,15.400015,1.052688,-1.769489
0.5,1,1,1,1,1,0.5,-->,15.215950,1.001254,-1.851960
0.5,1,1,1,1,1,1,-->,14.784328,0.909208,-2.723017
1,0,0,0,0,0,0,-->,70.948471,-41.038040,-70.003998
1,0,0,0,0,0,0.5,-->,46.604389,-0.675353,-72.815491
1,0,0,0,0,0,1,-->,26.209072,42.424610,-80.057426
1,0,0,0,0,0.5,0,-->,64.236031,-58.943600,-50.081661
1,0,0,0,0,0.5,0.5,-->,42.595001,-17.095131,-55.078320
1,0,0,0,0,0.5,1,-->,25.480127,22.840414,-62.555069
1,0,0,0,0,1,0,-->,58.374260,-73.388290,-34.211983
1,0,0,0,0,1,0.5,-->,39.421322,-29.389469,-41.396179
1,0,0,0,0,1,1,-->,25.207430,8.632217,-49.739651
1,0,0,0,0.5,0,0,-->,49.941013,-20.373877,-32.165493
1,0,0,0,0.5,0,0.5,-->,33.332184,2.416450,-35.772999
1,0,0,0,0.5,0,1,-->,20.931005,23.097219,-40.669254
1,0,0,0,0.5,0.5,0,-->,44.207054,-32.999756,-21.988592
1,0,0,0,0.5,0.5,0.5,-->,29.996532,-7.948216,-26.671932
1,0,0,0,0.5,0.5,1,-->,19.973068,13.173095,-32.156574
1,0,0,0,0.5,1,0,-->,39.543785,-43.642982,-14.819562
1,0,0,0,0.5,1,0.5,-->,27.736866,-15.877547,-20.838089
1,0,0,0,0.5,1,1,-->,19.704565,6.083208,-24.902693
1,0,0,0,1,0,0,-->,35.359394,3.133912,14.244683
1,0,0,0,1,0,0.5,-->,25.434103,9.006786,1.878672
1,0,0,0,1,0,1,-->,18.637789,13.633265,-5.964350
1,0,0,0,1,0.5,0,-->,30.367466,-6.023285,9.321652
1,0,0,0,1,0.5,0.5,-->,21.942955,2.069529,-0.224834
1,0,0,0,1,0.5,1,-->,17.599596,9.023216,-4.790524
1,0,0,0,1,1,0,-->,26.196749,-13.883011,5.913068
1,0,0,0,1,1,0.5,-->,20.737743,-1.190985,-0.931201
1,0,0,0,1,1,1,-->,17.141487,6.092449,-4.453133
1,0,0,0.5,0,0,0,-->,47.825790,-29.259745,-46.259689
1,0,0,0.5,0,0,0.5,-->,32.543053,-0.437957,-47.201340
1,0,0,0.5,0,0,1,-->,20.413311,25.806217,-49.719997
1,0,0,0.5,0,0.5,0,-->,43.669960,-39.314438,-32.880600
1,0,0,0.5,0,0.5,0.5,-->,30.213148,-9.425447,-35.153152
1,0,0,0.5,0,0.5,1,-->,20.028173,15.095853,-38.161442
1,0,0,0.5,0,1,0,-->,39.641567,-47.045025,-22.859467
1,0,0,0.5,0,1,0.5,-->,28.116596,-15.520017,-26.403612
1,0,0,0.5,0,1,1,-->,19.780813,7.568882,-29.856800
1,0,0,0.5,0.5,0,0,-->,35.773922,-14.299674,-17.499565
1,0,0,0.5,0.5,0,0.5,-->,25.498253,1.738430,-20.049496
1,0,0,0.5,0.5,0,1,-->,17.681767,15.061077,-23.254137
1,0,0,0.5,0.5,0.5,0,-->,31.911432,-21.062551,-11.952631
1,0,0,0.5,0.5,0.5,0.5,-->,24.796568,-6.132156,-15.722424
1,0,0,0.5,0.5,0.5,1,-->,18.334459,13.964821,-18.475725
1,0,0,0.5,0.5,1,0,-->,28.245575,-27.081938,-8.737320
1,0,0,0.5,0.5,1,0.5,-->,24.732256,-11.277362,-8.979982
1,0,0,0.5,0.5,1,1,-->,18.155029,5.669440,-17.260651
1,0,0,0.5,1,0,0,-->,27.696913,-0.228315,11.881894
1,0,0,0.5,1,0,0.5,-->,20.927814,5.423685,2.775394
1,0,0,0.5,1,0,1,-->,16.989794,9.901075,-1.960262
1,0,0,0.5,1,0.5,0,-->,24.015406,-5.492567,7.556373
1,0,0,0.5,1,0.5,0.5,-->,18.102694,0.187049,-1.560766
1,0,0,0.5,1,0.5,1,-->,16.654924,7.244091,-2.878437
1,0,0,0.5,1,1,0,-->,21.209623,-9.233786,4.804850
1,0,0,0.5,1,1,0.5,-->,19.001894,-2.942684,0.698152
1,0,0,0.5,1,1,1,-->,16.161524,3.847970,-3.630432
1,0,0,1,0,0,0,-->,17.974133,-3.729865,-9.548827
1,0,0,1,0,0,0.5,-->,17.100441,5.363936,-8.127909
1,0,0,1,0,0,1,-->,15.828259,9.049875,-7.266479
1,0,0,1,0,0.5,0,-->,18.974968,-6.227630,-5.788640
1,0,0,1,0,0.5,0.5,-->,14.601809,3.692756,-4.862614
1,0,0,1,0,0.5,1,-->,14.990781,6.126100,-3.016848
1,0,0,1,0,1,0,-->,18.275152,-8.877676,-4.055112
1,0,0,1,0,1,0.5,-->,14.958350,3.678210,-3.692528
1,0,0,1,0,1,1,-->,15.539559,6.711253,-4.291657
1,0,0,1,0.5,0,0,-->,17.930513,-3.044989,2.369013
1,0,0,1,0.5,0,0.5,-->,14.675054,4.879204,0.469647
1,0,0,1,0.5,0,1,-->,14.671440,6.292059,0.734919
1,0,0,1,0.5,0.5,0,-->,16.244804,-3.885717,2.383969
1,0,0,1,0.5,0.5,0.5,-->,16.170561,-1.087859,-4.440016
1,0,0,1,0.5,0.5,1,-->,15.209295,5.081034,-4.226916
1,0,0,1,0.5,1,0,-->,15.017804,-4.447236,1.214787
1,0,0,1,0.5,1,0.5,-->,16.230608,-3.720441,-2.690970
1,0,0,1,0.5,1,1,-->,15.173331,3.909603,-3.439461
1,0,0,1,1,0,0,-->,21.229034,-3.406107,9.895300
1,0,0,1,1,0,0.5,-->,16.915173,1.101188,5.216398
1,0,0,1,1,0,1,-->,15.888113,7.115156,1.532374
1,0,0,1,1,0.5,0,-->,17.895916,-5.317199,6.842772
1,0,0,1,1,0.5,0.5,-->,17.919268,-1.706329,4.309098
1,0,0,1,1,0.5,1,-->,15.373696,4.190803,-0.245398
1,0,0,1,1,1,0,-->,17.262951,-4.792090,3.782933
1,0,0,1,1,1,0.5,-->,16.190056,-2.500517,1.137697
1,0,0,1,1,1,1,-->,14.740366,0.590435,-2.435168
1,0,0.5,0,0,0,0,-->,66.133408,-65.644768,-21.603825
1,0,0.5,0,0,0,0.5,-->,43.503811,-24.283569,-34.171398
1,0,0.5,0,0,0,1,-->,24.612631,18.675930,-48.404045
1,0,0.5,0,0,0.5,0,-->,60.521519,-76.091675,-11.649658
1,0,0.5,0,0,0.5,0.5,-->,40.091572,-34.769329,-23.706175
1,0,0.5,0,0,0.5,1,-->,23.897100,5.525078,-36.874287
1,0,0.5,0,0,1,0,-->,55.778931,-83.556221,-4.922818
1,0,0.5,0,0,1,0.5,-->,37.674652,-41.693081,-16.859436
1,0,0.5,0,0,1,1,-->,24.107723,-3.925463,-28.370569
1,0,0.5,0,0.5,0,0,-->,48.269009,-30.357559,0.032731
1,0,0.5,0,0.5,0,0.5,-->,32.370544,-7.964912,-10.964334
1,0,0.5,0,0.5,0,1,-->,20.556753,12.980065,-21.682663
1,0,0.5,0,0.5,0.5,0,-->,43.084911,-41.065613,3.280964
1,0,0.5,0,0.5,0.5,0.5,-->,32.709583,-19.843834,-5.503313
1,0,0.5,0,0.5,0.5,1,-->,20.357538,11.405612,-17.299818
1,0,0.5,0,0.5,1,0,-->,39.152359,-49.297211,4.029828
1,0,0.5,0,0.5,1,0.5,-->,31.630186,-27.320389,-0.490029
1,0,0.5,0,0.5,1,1,-->,18.134283,4.834321,-28.845415
1,0,0.5,0,1,0,0,-->,36.606815,0.674046,24.268759
1,0,0.5,0,1,0,0.5,-->,25.856377,7.079332,9.583655
1,0,0.5,0,1,0,1,-->,19.326174,12.117983,0.386599
1,0,0.5,0,1,0.5,0,-->,31.296497,-8.695712,17.708637
1,0,0.5,0,1,0.5,0.5,-->,22.713625,-1.730382,5.183142
1,0,0.5,0,1,0.5,1,-->,14.863734,8.470817,-6.309068
1,0,0.5,0,1,1,0,-->,27.829113,-16.922194,13.446772
1,0,0.5,0,1,1,0.5,-->,19.489815,-7.140486,0.853259
1,0,0.5,0,1,1,1,-->,13.656046,4.334937,-6.273540
1,0,0.5,0.5,0,0,0,-->,45.082626,-43.433563,-15.027866
1,0,0.5,0.5,0,0,0.5,-->,30.713779,-13.330149,-22.281708
1,0,0.5,0.5,0,0,1,-->,19.409510,12.851693,-28.837914
1,0,0.5,0.5,0,0.5,0,-->,41.485607,-48.859566,-8.055514
1,0,0.5,0.5,0,0.5,0.5,-->,29.143623,-20.641510,-16.017675
1,0,0.5,0.5,0,0.5,1,-->,19.734917,10.064011,-21.475832
1,0,0.5,0.5,0,1,0,-->,38.211544,-52.971573,-2.983037
1,0,0.5,0.5,0,1,0.5,-->,28.793585,-23.325277,-8.617481
1,0,0.5,0.5,0,1,1,-->,20.127878,3.609267,-15.372395
1,0,0.5,0.5,0.5,0,0,-->,34.792107,-19.288122,1.372159
1,0,0.5,0.5,0.5,0,0.5,-->,27.093494,-5.000532,-3.927181
1,0,0.5,0.5,0.5,0,1,-->,18.953707,14.587713,-12.035953
1,0,0.5,0.5,0.5,0.5,0,-->,33.220898,-26.505781,4.421633
1,0,0.5,0.5,0.5,0.5,0.5,-->,24.404005,-10.998084,-2.133335
1,0,0.5,0.5,0.5,0.5,1,-->,17.557762,12.063068,-19.973255
1,0,0.5,0.5,0.5,1,0,-->,31.680260,-32.261120,6.564019
1,0,0.5,0.5,0.5,1,0.5,-->,26.493397,-21.197412,-6.874910
1,0,0.5,0.5,0.5,1,1,-->,16.701490,4.605558,-18.098619
1,0,0.5,0.5,1,0,0,-->,28.190290,-0.967291,17.781853
1,0,0.5,0.5,1,0,0.5,-->,20.537479,5.437759,4.010556
1,0,0.5,0.5,1,0,1,-->,17.244362,8.031530,-0.665914
1,0,0.5,0.5,1,0.5,0,-->,24.282976,-8.303550,10.021225
1,0,0.5,0.5,1,0.5,0.5,-->,20.686300,-0.688227,4.119260
1,0,0.5,0.5,1,0.5,1,-->,14.940086,6.407543,-3.813544
1,0,0.5,0.5,1,1,0,-->,21.550436,-10.198698,5.988517
1,0,0.5,0.5,1,1,0.5,-->,17.746214,-4.959881,0.583550
1,0,0.5,0.5,1,1,1,-->,14.097543,2.807023,-4.699406
1,0,0.5,1,0,0,0,-->,18.534826,-6.808117,-3.431642
1,0,0.5,1,0,0,0.5,-->,14.227447,2.898082,-3.250034
1,0,0.5,1,0,0,1,-->,14.352303,6.715083,-1.741568
1,0,0.5,1,0,0.5,0,-->,18.605185,-8.646709,-1.053250
1,0,0.5,1,0,0.5,0.5,-->,16.544987,-2.075289,-5.057126
1,0,0.5,1,0,0.5,1,-->,15.339697,4.938086,-4.368093
1,0,0.5,1,0,1,0,-->,18.559525,-10.978804,0.707758
1,0,0.5,1,0,1,0.5,-->,16.876163,-4.879500,-2.656430
1,0,0.5,1,0,1,1,-->,15.338123,3.672860,-3.303231
1,0,0.5,1,0.5,0,0,-->,17.303986,-3.742092,5.797585
1,0,0.5,1,0.5,0,0.5,-->,16.428068,-1.071497,-3.676136
1,0,0.5,1,0.5,0,1,-->,15.305794,5.347218,-3.918418
1,0,0.5,1,0.5,0.5,0,-->,16.917240,-3.147690,-3.430760
1,0,0.5,1,0.5,0.5,0.5,-->,16.417873,-1.720662,-5.245604
1,0,0.5,1,0.5,0.5,1,-->,15.278941,4.896440,-4.667107
1,0,0.5,1,0.5,1,0,-->,16.939054,-5.518414,-1.851914
1,0,0.5,1,0.5,1,0.5,-->,16.569380,-4.350174,-2.962260
1,0,0.5,1,0.5,1,1,-->,15.154767,3.675231,-3.349459
1,0,0.5,1,1,0,0,-->,19.625874,-3.452221,10.928799
1,0,0.5,1,1,0,0.5,-->,18.295010,-1.299872,5.197034
1,0,0.5,1,1,0,1,-->,15.483694,4.361140,0.102085
1,0,0.5,1,1,0.5,0,-->,18.489265,-2.613142,5.443854
1,0,0.5,1,1,0.5,0.5,-->,18.067408,-1.571763,4.142287
1,0,0.5,1,1,0.5,1,-->,15.331735,3.928404,-0.368177
1,0,0.5,1,1,1,0,-->,16.453892,-3.146634,1.794636
1,0,0.5,1,1,1,0.5,-->,16.074808,-2.268790,0.873885
1,0,0.5,1,1,1,1,-->,14.737060,0.594888,-2.416807
1,0,1,0,0,0,0,-->,62.907173,-78.671158,26.008047
1,0,1,0,0,0,0.5,-->,41.373589,-38.356861,2.940533
1,0,1,0,0,0,1,-->,24.545532,0.411039,-18.045095
1,0,1,0,0,0.5,0,-->,58.236893,-84.501625,23.800426
1,0,1,0,0,0.5,0.5,-->,38.645283,-46.811230,4.710554
1,0,1,0,0,0.5,1,-->,24.152374,-7.909777,-12.906820
1,0,1,0,0,1,0,-->,54.587738,-88.822441,21.260414
1,0,1,0,0,1,0.5,-->,37.044769,-47.997982,4.202856
1,0,1,0,0,1,1,-->,24.327253,-13.670534,-10.025769
1,0,1,0,0.5,0,0,-->,47.534298,-33.495468,28.275749
1,0,1,0,0.5,0,0.5,-->,32.167084,-13.295676,10.603825
1,0,1,0,0.5,0,1,-->,21.325571,6.874872,-3.873573
1,0,1,0,0.5,0.5,0,-->,42.907005,-43.861328,24.099562
1,0,1,0,0.5,0.5,0.5,-->,30.764479,-23.789467,9.337201
1,0,1,0,0.5,0.5,1,-->,18.074034,1.208844,-12.386180
1,0,1,0,0.5,1,0,-->,39.432804,-50.283478,20.006313
1,0,1,0,0.5,1,0.5,-->,33.695454,-44.979614,8.254441
1,0,1,0,0.5,1,1,-->,17.631332,-6.335947,-9.250778
1,0,1,0,1,0,0,-->,38.035141,-1.546145,31.542631
1,0,1,0,1,0,0.5,-->,27.394571,5.678119,14.543347
1,0,1,0,1,0,1,-->,20.289000,11.056852,4.773691
1,0,1,0,1,0.5,0,-->,33.293385,-11.351868,23.189404
1,0,1,0,1,0.5,0.5,-->,25.540478,-0.686768,13.654545
1,0,1,0,1,0.5,1,-->,15.547027,7.151984,-1.099289
1,0,1,0,1,1,0,-->,29.861805,-19.883141,19.004065
1,0,1,0,1,1,0.5,-->,21.284641,-10.423054,7.370427
1,0,1,0,1,1,1,-->,9.263895,2.897945,-9.099767
1,0,1,0.5,0,0,0,-->,43.062592,-51.394478,15.009248
1,0,1,0.5,0,0,0.5,-->,29.357628,-22.753750,1.121115
1,0,1,0.5,0,0,1,-->,19.645048,3.341229,-9.980879
1,0,1,0.5,0,0.5,0,-->,40.147877,-53.818951,14.206974
1,0,1,0.5,0,0.5,0.5,-->,27.708054,-30.308428,1.986009
1,0,1,0.5,0,0.5,1,-->,19.475603,-2.074164,-7.460687
1,0,1,0.5,0,1,0,-->,37.612267,-56.152908,13.647568
1,0,1,0.5,0,1,0.5,-->,28.265032,-29.320641,3.271510
1,0,1,0.5,0,1,1,-->,20.566586,-7.997917,-6.827170
1,0,1,0.5,0.5,0,0,-->,34.293003,-21.376057,18.047884
1,0,1,0.5,0.5,0,0.5,-->,26.151863,-12.955709,7.769952
1,0,1,0.5,0.5,0,1,-->,19.033987,4.070927,-3.073754
1,0,1,0.5,0.5,0.5,0,-->,32.293537,-33.744469,16.566692
1,0,1,0.5,0.5,0.5,0.5,-->,27.005695,-21.472336,6.066808
1,0,1,0.5,0.5,0.5,1,-->,16.709574,2.144339,-7.777362
1,0,1,0.5,0.5,1,0,-->,31.683136,-37.173519,13.979336
1,0,1,0.5,0.5,1,0.5,-->,26.600807,-29.257099,5.267498
1,0,1,0.5,0.5,1,1,-->,16.532949,-3.585222,-6.406570
1,0,1,0.5,1,0,0,-->,29.156986,-2.277104,21.006542
1,0,1,0.5,1,0,0.5,-->,21.580475,4.418973,7.910742
1,0,1,0.5,1,0,1,-->,18.141171,7.053082,2.208084
1,0,1,0.5,1,0.5,0,-->,25.447050,-9.750976,14.097980
1,0,1,0.5,1,0.5,0.5,-->,21.959846,-1.055515,9.310876
1,0,1,0.5,1,0.5,1,-->,15.280819,4.622353,-1.430426
1,0,1,0.5,1,1,0,-->,24.016533,-12.293161,11.061518
1,0,1,0.5,1,1,0.5,-->,18.799379,-6.367060,3.839443
1,0,1,0.5,1,1,1,-->,11.702971,1.714734,-6.007911
1,0,1,1,0,0,0,-->,18.901840,-9.268866,1.867805
1,0,1,1,0,0,0.5,-->,13.987042,0.937508,-0.748697
1,0,1,1,0,0,1,-->,15.828259,6.075121,-0.651619
1,0,1,1,0,0.5,0,-->,19.475479,-10.225996,2.233862
1,0,1,1,0,0.5,0.5,-->,17.093025,-4.873200,0.134824
1,0,1,1,0,0.5,1,-->,15.507754,3.456789,-1.338281
1,0,1,1,0,1,0,-->,19.035622,-12.797759,3.363025
1,0,1,1,0,1,0.5,-->,17.365107,-7.253568,1.000372
1,0,1,1,0,1,1,-->,15.111795,0.228649,-2.188341
1,0,1,1,0.5,0,0,-->,17.498293,-3.061450,6.318172
1,0,1,1,0.5,0,0.5,-->,16.872149,-3.599342,0.954592
1,0,1,1,0.5,0,1,-->,15.460568,3.863336,-1.050385
1,0,1,1,0.5,0.5,0,-->,17.419420,-5.470795,1.353510
1,0,1,1,0.5,0.5,0.5,-->,16.913887,-4.438534,0.093255
1,0,1,1,0.5,0.5,1,-->,15.315732,3.399427,-1.465977
1,0,1,1,0.5,1,0,-->,17.434072,-7.527290,1.611501
1,0,1,1,0.5,1,0.5,-->,16.999058,-6.393887,0.681813
1,0,1,1,0.5,1,1,-->,14.939388,0.398454,-2.283571
1,0,1,1,1,0,0,-->,21.410341,-2.870640,10.982650
1,0,1,1,1,0,0.5,-->,18.693378,-1.118941,5.661719
1,0,1,1,1,0,1,-->,15.027303,1.242131,-1.517585
1,0,1,1,1,0.5,0,-->,18.778297,-2.161339,5.853913
1,0,1,1,1,0.5,0.5,-->,18.233450,-1.278951,4.641930
1,0,1,1,1,0.5,1,-->,14.896147,0.954045,-1.911875
1,0,1,1,1,1,0,-->,15.537800,-1.288025,-0.456774
1,0,1,1,1,1,0.5,-->,15.196155,-0.486670,-1.284255
1,0,1,1,1,1,1,-->,14.735084,0.599372,-2.401030
1,0.5,0,0,0,0,0,-->,51.959728,-10.164918,-65.601227
1,0.5,0,0,0,0,0.5,-->,35.393841,14.555005,-64.534531
1,0.5,0,0,0,0,1,-->,22.449810,38.223690,-66.014160
1,0.5,0,0,0,0.5,0,-->,46.671947,-27.405550,-49.464508
1,0.5,0,0,0,0.5,0.5,-->,32.247101,-0.475073,-50.022278
1,0.5,0,0,0,0.5,1,-->,21.372515,23.502020,-52.517811
1,0.5,0,0,0,1,0,-->,41.995220,-40.868759,-37.496025
1,0.5,0,0,0,1,0.5,-->,29.354805,-10.461728,-39.891560
1,0.5,0,0,0,1,1,-->,21.188480,13.351822,-42.880356
1,0.5,0,0,0.5,0,0,-->,38.413811,-0.108803,-29.077499
1,0.5,0,0,0.5,0,0.5,-->,26.844105,12.624009,-30.908796
1,0.5,0,0,0.5,0,1,-->,18.944105,22.757397,-32.987885
1,0.5,0,0,0.5,0.5,0,-->,33.616341,-13.241187,-21.987946
1,0.5,0,0,0.5,0.5,0.5,-->,26.138958,2.219620,-25.170267
1,0.5,0,0,0.5,0.5,1,-->,18.797962,20.153351,-27.190025
1,0.5,0,0,0.5,1,0,-->,29.321871,-23.252502,-18.098330
1,0.5,0,0,0.5,1,0.5,-->,25.460756,-7.164409,-16.875298
1,0.5,0,0,0.5,1,1,-->,18.305477,9.278183,-32.909229
1,0.5,0,0,1,0,0,-->,30.176041,11.681432,9.042534
1,0.5,0,0,1,0,0.5,-->,22.173378,13.808892,-0.590298
1,0.5,0,0,1,0,1,-->,18.119385,15.250185,-5.337801
1,0.5,0,0,1,0.5,0,-->,25.165363,1.887594,4.059512
1,0.5,0,0,1,0.5,0.5,-->,18.427238,7.185559,-5.481548
1,0.5,0,0,1,0.5,1,-->,15.120345,11.817921,-9.676576
1,0.5,0,0,1,1,0,-->,21.892391,-6.221505,0.774011
1,0.5,0,0,1,1,0.5,-->,19.051060,-2.848236,-3.511384
1,0.5,0,0,1,1,1,-->,14.046108,7.685202,-9.410872
1,0.5,0,0.5,0,0,0,-->,36.022343,-6.867721,-43.354076
1,0.5,0,0.5,0,0,0.5,-->,26.102119,9.302638,-40.745533
1,0.5,0,0.5,0,0,1,-->,18.516552,23.185846,-39.578979
1,0.5,0,0.5,0,0.5,0,-->,32.677681,-17.062202,-32.347893
1,0.5,0,0.5,0,0.5,0.5,-->,23.904213,-1.055044,-32.760071
1,0.5,0,0.5,0,0.5,1,-->,18.527992,17.347248,-29.704268
1,0.5,0,0.5,0,1,0,-->,29.037926,-24.648935,-24.537624
1,0.5,0,0.5,0,1,0.5,-->,24.034405,-6.753484,-21.941885
1,0.5,0,0.5,0,1,1,-->,18.996021,9.167547,-21.493805
1,0.5,0,0.5,0.5,0,0,-->,29.215225,-0.980393,-15.488311
1,0.5,0,0.5,0.5,0,0.5,-->,22.811413,9.399046,-17.255960
1,0.5,0,0.5,0.5,0,1,-->,18.213606,19.091459,-17.859894
1,0.5,0,0.5,0.5,0.5,0,-->,26.987123,-7.380921,-11.840446
1,0.5,0,0.5,0.5,0.5,0.5,-->,20.427582,2.165998,-13.835156
1,0.5,0,0.5,0.5,0.5,1,-->,17.226686,15.726270,-24.186060
1,0.5,0,0.5,0.5,1,0,-->,26.097567,-15.289931,-6.392435
1,0.5,0,0.5,0.5,1,0.5,-->,24.592346,-13.556912,-13.419839
1,0.5,0,0.5,0.5,1,1,-->,16.836061,7.020131,-20.391956
1,0.5,0,0.5,1,0,0,-->,24.735332,5.694610,9.585237
1,0.5,0,0.5,1,0,0.5,-->,17.836353,10.189799,-2.134391
1,0.5,0,0.5,1,0,1,-->,16.747675,8.769299,-2.596348
1,0.5,0,0.5,1,0.5,0,-->,20.237848,-0.138685,1.701146
1,0.5,0,0.5,1,0.5,0.5,-->,19.404837,3.388271,-0.208206
1,0.5,0,0.5,1,0.5,1,-->,15.113560,8.352796,-5.768607
1,0.5,0,0.5,1,1,0,-->,18.199127,-1.668870,-0.562712
1,0.5,0,0.5,1,1,0.5,-->,17.497011,-2.086385,-1.999369
1,0.5,0,0.5,1,1,1,-->,14.338747,4.856147,-6.625651
1,0.5,0,1,0,0,0,-->,17.741364,2.786140,-6.163527
1,0.5,0,1,0,0,0.5,-->,16.537453,7.219605,-5.521978
1,0.5,0,1,0,0,1,-->,15.587375,9.205576,-5.090564
1,0.5,0,1,0,0.5,0,-->,14.905260,-1.119063,-5.149484
1,0.5,0,1,0,0.5,0.5,-->,16.180937,-0.136481,-6.454904
1,0.5,0,1,0,0.5,1,-->,15.340524,5.953908,-5.524516
1,0.5,0,1,0,1,0,-->,13.993071,-2.302418,-4.369917
1,0.5,0,1,0,1,0.5,-->,16.149532,-3.084416,-4.071048
1,0.5,0,1,0,1,1,-->,15.190268,4.472444,-4.151277
1,0.5,0,1,0.5,0,0,-->,17.146381,1.247602,3.995903
1,0.5,0,1,0.5,0,0.5,-->,16.525356,0.027548,-4.369127
1,0.5,0,1,0.5,0,1,-->,15.408526,5.794302,-4.520952
1,0.5,0,1,0.5,0.5,0,-->,16.601526,-1.226202,-4.538902
1,0.5,0,1,0.5,0.5,0.5,-->,16.385006,-1.141147,-5.714650
1,0.5,0,1,0.5,0.5,1,-->,15.314342,5.141040,-4.974138
1,0.5,0,1,0.5,1,0,-->,16.553391,-3.904815,-2.887343
1,0.5,0,1,0.5,1,0.5,-->,16.484640,-3.886659,-3.359255
1,0.5,0,1,0.5,1,1,-->,15.163939,3.873824,-3.570547
1,0.5,0,1,1,0,0,-->,19.587229,-1.663756,10.910954
1,0.5,0,1,1,0,0.5,-->,18.303659,-0.843897,4.999642
1,0.5,0,1,1,0,1,-->,15.458806,4.575813,-0.169190
1,0.5,0,1,1,0.5,0,-->,18.426573,-1.432212,4.855585
1,0.5,0,1,1,0.5,0.5,-->,18.085739,-1.249327,3.911107
1,0.5,0,1,1,0.5,1,-->,15.349093,4.079195,-0.551905
1,0.5,0,1,1,1,0,-->,16.351580,-2.069506,1.123045
1,0.5,0,1,1,1,0.5,-->,16.074997,-1.973257,0.623585
1,0.5,0,1,1,1,1,-->,14.760802,0.749008,-2.585860
1,0.5,0.5,0,0,0,0,-->,48.432896,-29.818817,-27.476204
1,0.5,0.5,0,0,0,0.5,-->,33.158726,-4.032138,-33.389095
1,0.5,0.5,0,0,0,1,-->,21.054865,21.390778,-40.440014
1,0.5,0.5,0,0,0.5,0,-->,43.952381,-42.278149,-18.824888
1,0.5,0.5,0,0,0.5,0.5,-->,31.466150,-13.985195,-26.686501
1,0.5,0.5,0,0,0.5,1,-->,20.538794,16.420385,-32.807720
1,0.5,0.5,0,0,1,0,-->,39.878704,-50.659058,-13.546220
1,0.5,0.5,0,0,1,0.5,-->,30.600475,-21.329281,-18.171278
1,0.5,0.5,0,0,1,1,-->,20.836260,6.577622,-25.713980
1,0.5,0.5,0,0.5,0,0,-->,37.223396,-8.495721,-4.354346
1,0.5,0.5,0,0.5,0,0.5,-->,29.736094,6.632795,-8.261570
1,0.5,0.5,0,0.5,0,1,-->,19.976093,22.804985,-17.827785
1,0.5,0.5,0,0.5,0.5,0,-->,36.395710,-17.182648,0.195211
1,0.5,0.5,0,0.5,0.5,0.5,-->,26.348690,-2.985295,-5.700120
1,0.5,0.5,0,0.5,0.5,1,-->,18.784521,24.488159,-42.707909
1,0.5,0.5,0,0.5,1,0,-->,34.045586,-29.410780,2.566192
1,0.5,0.5,0,0.5,1,0.5,-->,33.950027,-30.207886,-20.271912
1,0.5,0.5,0,0.5,1,1,-->,18.194029,8.723564,-31.677402
1,0.5,0.5,0,1,0,0,-->,30.617792,11.051487,17.541006
1,0.5,0.5,0,1,0,0.5,-->,22.349306,17.361824,3.787994
1,0.5,0.5,0,1,0,1,-->,18.201696,14.954713,-2.129033
1,0.5,0.5,0,1,0.5,0,-->,26.433992,2.220897,9.793024
1,0.5,0.5,0,1,0.5,0.5,-->,23.305586,6.436999,1.285798
1,0.5,0.5,0,1,0.5,1,-->,15.014296,11.725403,-9.422081
1,0.5,0.5,0,1,1,0,-->,23.337297,-6.260886,5.393529
1,0.5,0.5,0,1,1,0.5,-->,19.184200,-2.921762,-2.903553
1,0.5,0.5,0,1,1,1,-->,13.933243,7.615726,-9.390846
1,0.5,0.5,0.5,0,0,0,-->,34.235058,-18.954531,-17.671537
1,0.5,0.5,0.5,0,0,0.5,-->,25.773153,0.069817,-18.948748
1,0.5,0.5,0.5,0,0,1,-->,18.814400,18.633356,-21.029432
1,0.5,0.5,0.5,0,0.5,0,-->,31.443966,-22.120771,-11.278578
1,0.5,0.5,0.5,0,0.5,0.5,-->,23.107603,-6.596013,-15.033111
1,0.5,0.5,0.5,0,0.5,1,-->,18.172010,13.799651,-16.378033
1,0.5,0.5,0.5,0,1,0,-->,30.119604,-27.131174,-5.019090
1,0.5,0.5,0.5,0,1,0.5,-->,23.942125,-9.811013,-7.856998
1,0.5,0.5,0.5,0,1,1,-->,17.653482,6.098179,-18.662767
1,0.5,0.5,0.5,0.5,0,0,-->,31.036264,-3.348753,2.509150
1,0.5,0.5,0.5,0.5,0,0.5,-->,22.846045,5.496519,-3.319129
1,0.5,0.5,0.5,0.5,0,1,-->,18.034472,16.794636,-8.686584
1,0.5,0.5,0.5,0.5,0.5,0,-->,27.046698,-9.802996,2.235124
1,0.5,0.5,0.5,0.5,0.5,0.5,-->,25.924742,-6.011429,-14.337725
1,0.5,0.5,0.5,0.5,0.5,1,-->,17.145344,16.485498,-26.933395
1,0.5,0.5,0.5,0.5,1,0,-->,26.474226,-16.329372,3.915834
1,0.5,0.5,0.5,0.5,1,0.5,-->,26.567543,-19.260605,-12.937006
1,0.5,0.5,0.5,0.5,1,1,-->,16.693758,6.742046,-20.040186
1,0.5,0.5,0.5,1,0,0,-->,23.922766,8.400916,9.199724
1,0.5,0.5,0.5,1,0,0.5,-->,17.281204,10.402299,-1.446240
1,0.5,0.5,0.5,1,0,1,-->,15.997129,9.322457,-3.706504
1,0.5,0.5,0.5,1,0.5,0,-->,19.959641,0.671553,2.516689
1,0.5,0.5,0.5,1,0.5,0.5,-->,20.444166,3.280554,1.416967
1,0.5,0.5,0.5,1,0.5,1,-->,14.984303,8.331334,-5.840697
1,0.5,0.5,0.5,1,1,0,-->,20.014076,-3.166089,1.433473
1,0.5,0.5,0.5,1,1,0.5,-->,17.648413,-2.239273,-1.753173
1,0.5,0.5,0.5,1,1,1,-->,14.271161,4.814942,-6.611599
1,0.5,0.5,1,0,0,0,-->,17.866171,-0.796475,-0.879273
1,0.5,0.5,1,0,0,0.5,-->,16.540052,-0.500319,-5.346298
1,0.5,0.5,1,0,0,1,-->,15.357438,5.713381,-4.880876
1,0.5,0.5,1,0,0.5,0,-->,16.786301,-1.968804,-5.242632
1,0.5,0.5,1,0,0.5,0.5,-->,16.438459,-1.366673,-5.918745
1,0.5,0.5,1,0,0.5,1,-->,15.322483,5.081748,-5.004104
1,0.5,0.5,1,0,1,0,-->,16.787497,-4.550233,-3.059657
1,0.5,0.5,1,0,1,0.5,-->,16.557604,-4.058350,-3.369553
1,0.5,0.5,1,0,1,1,-->,15.179350,3.819669,-3.554223
1,0.5,0.5,1,0.5,0,0,-->,17.006927,-1.224621,-4.058714
1,0.5,0.5,1,0.5,0,0.5,-->,16.478102,-1.224044,-5.617938
1,0.5,0.5,1,0.5,0,1,-->,15.317367,5.096279,-4.934370
1,0.5,0.5,1,0.5,0.5,0,-->,16.650530,-1.415044,-5.629459
1,0.5,0.5,1,0.5,0.5,0.5,-->,16.425140,-1.388400,-5.993433
1,0.5,0.5,1,0.5,0.5,1,-->,15.308067,5.007318,-4.989094
1,0.5,0.5,1,0.5,1,0,-->,16.740017,-4.009963,-3.214035
1,0.5,0.5,1,0.5,1,0.5,-->,16.559151,-3.993882,-3.358853
1,0.5,0.5,1,0.5,1,1,-->,15.161155,3.815991,-3.518102
1,0.5,0.5,1,1,0,0,-->,18.656664,-1.252679,5.150996
1,0.5,0.5,1,1,0,0.5,-->,18.123253,-1.228193,3.925911
1,0.5,0.5,1,1,0,1,-->,15.352035,4.061139,-0.559444
1,0.5,0.5,1,1,0.5,0,-->,18.282675,-1.244980,3.940867
1,0.5,0.5,1,1,0.5,0.5,-->,18.056015,-1.249814,3.679548
1,0.5,0.5,1,1,0.5,1,-->,15.337536,4.021894,-0.588680
1,0.5,0.5,1,1,1,0,-->,16.252003,-1.922978,0.687391
1,0.5,0.5,1,1,1,0.5,-->,16.057806,-1.946499,0.559277
1,0.5,0.5,1,1,1,1,-->,14.760706,0.749221,-2.581323
1,0.5,1,0,0,0,0,-->,46.358555,-41.684265,9.808984
1,0.5,1,0,0,0,0.5,-->,31.295145,-15.386848,-5.021339
1,0.5,1,0,0,0,1,-->,21.127449,9.625757,-17.576450
1,0.5,1,0,0,0.5,0,-->,42.094601,-50.149521,8.532313
1,0.5,1,0,0,0.5,0.5,-->,29.521347,-26.170198,-3.876164
1,0.5,1,0,0,0.5,1,-->,20.248503,2.188128,-15.061131
1,0.5,1,0,0,1,0,-->,39.235741,-55.969120,6.669197
1,0.5,1,0,0,1,0.5,-->,29.787251,-28.705225,-3.046076
1,0.5,1,0,0,1,1,-->,18.383463,-3.158375,-12.411837
1,0.5,1,0,0.5,0,0,-->,36.753143,-10.251249,16.716208
1,0.5,1,0,0.5,0,0.5,-->,28.426775,-2.705827,6.828013
1,0.5,1,0,0.5,0,1,-->,20.042528,11.131009,-6.170572
1,0.5,1,0,0.5,0.5,0,-->,35.166561,-25.876057,15.972633
1,0.5,1,0,0.5,0.5,0.5,-->,35.713726,-30.980604,6.562514
1,0.5,1,0,0.5,0.5,1,-->,18.032059,5.123486,-15.302508
1,0.5,1,0,0.5,1,0,-->,33.869591,-35.154846,12.321743
1,0.5,1,0,0.5,1,0.5,-->,32.787987,-38.853516,4.233117
1,0.5,1,0,0.5,1,1,-->,17.601856,-2.366217,-12.200598
1,0.5,1,0,1,0,0,-->,31.715658,9.709839,22.362507
1,0.5,1,0,1,0,0.5,-->,23.648663,16.399214,8.857104
1,0.5,1,0,1,0,1,-->,16.220810,10.903036,-3.690734
1,0.5,1,0,1,0.5,0,-->,27.968670,0.532146,15.194191
1,0.5,1,0,1,0.5,0.5,-->,24.905142,4.322899,9.594554
1,0.5,1,0,1,0.5,1,-->,15.582826,10.185863,-4.646208
1,0.5,1,0,1,1,0,-->,24.873678,-6.115225,6.544396
1,0.5,1,0,1,1,0.5,-->,20.988970,-5.541379,3.009309
1,0.5,1,0,1,1,1,-->,9.892586,6.700310,-11.861869
1,0.5,1,0.5,0,0,0,-->,32.942177,-25.574383,5.307837
1,0.5,1,0.5,0,0,0.5,-->,24.384890,-11.406152,-1.781884
1,0.5,1,0.5,0,0,1,-->,18.529383,4.734174,-8.162889
1,0.5,1,0.5,0,0.5,0,-->,29.874474,-31.821262,5.829229
1,0.5,1,0.5,0,0.5,0.5,-->,21.688107,-17.654863,-2.582995
1,0.5,1,0.5,0,0.5,1,-->,17.483660,3.435434,-9.753674
1,0.5,1,0.5,0,1,0,-->,29.451742,-33.050747,5.544366
1,0.5,1,0.5,0,1,0.5,-->,25.725878,-23.910976,0.857561
1,0.5,1,0.5,0,1,1,-->,16.988398,-1.651407,-8.348988
1,0.5,1,0.5,0.5,0,0,-->,30.064974,-12.201654,14.006801
1,0.5,1,0.5,0.5,0,0.5,-->,21.745586,-4.591643,3.241842
1,0.5,1,0.5,0.5,0,1,-->,17.384815,6.083876,-7.247473
1,0.5,1,0.5,0.5,0.5,0,-->,25.959661,-19.429756,9.213525
1,0.5,1,0.5,0.5,0.5,0.5,-->,27.401632,-20.487846,3.598947
1,0.5,1,0.5,0.5,0.5,1,-->,16.641577,4.429810,-9.818582
1,0.5,1,0.5,0.5,1,0,-->,27.880827,-25.219452,5.865616
1,0.5,1,0.5,0.5,1,0.5,-->,26.121891,-25.588184,2.581726
1,0.5,1,0.5,0.5,1,1,-->,16.519007,-1.169129,-8.225898
1,0.5,1,0.5,1,0,0,-->,24.965723,7.542405,13.169250
1,0.5,1,0.5,1,0,0.5,-->,21.808554,5.596788,7.378573
1,0.5,1,0.5,1,0,1,-->,15.687077,6.895452,-3.044017
1,0.5,1,0.5,1,0.5,0,-->,24.066048,1.151908,9.780835
1,0.5,1,0.5,1,0.5,0.5,-->,21.877644,2.060804,7.042139
1,0.5,1,0.5,1,0.5,1,-->,15.306239,6.468522,-3.615164
1,0.5,1,0.5,1,1,0,-->,21.000204,-3.684807,3.274642
1,0.5,1,0.5,1,1,0.5,-->,18.623642,-3.356633,1.140205
1,0.5,1,0.5,1,1,1,-->,12.023477,3.838318,-7.818818
1,0.5,1,1,0,0,0,-->,18.630850,-3.000053,2.835081
1,0.5,1,1,0,0,0.5,-->,17.093102,-3.533005,0.076839
1,0.5,1,1,0,0,1,-->,15.388735,4.026971,-1.619435
1,0.5,1,1,0,0.5,0,-->,17.427704,-4.696206,0.244152
1,0.5,1,1,0,0.5,0.5,-->,16.961147,-4.224621,-0.279733
1,0.5,1,1,0,0.5,1,-->,15.330501,3.520899,-1.683697
1,0.5,1,1,0,1,0,-->,17.345657,-6.646923,0.709597
1,0.5,1,1,0,1,0.5,-->,16.996099,-6.109373,0.386310
1,0.5,1,1,0,1,1,-->,14.963638,0.531842,-2.459684
1,0.5,1,1,0.5,0,0,-->,17.505222,-3.992286,0.919467
1,0.5,1,1,0.5,0,0.5,-->,16.954338,-4.082919,-0.170254
1,0.5,1,1,0.5,0,1,-->,15.320232,3.549291,-1.671903
1,0.5,1,1,0.5,0.5,0,-->,17.139885,-4.178271,-0.123258
1,0.5,1,1,0.5,0.5,0.5,-->,16.897791,-4.177610,-0.352431
1,0.5,1,1,0.5,0.5,1,-->,15.308900,3.502097,-1.686730
1,0.5,1,1,0.5,1,0,-->,17.151554,-5.988311,0.469936
1,0.5,1,1,0.5,1,0.5,-->,16.950037,-5.970536,0.349361
1,0.5,1,1,0.5,1,1,-->,14.947757,0.564551,-2.457503
1,0.5,1,1,1,0,0,-->,18.739109,-0.955018,5.310359
1,0.5,1,1,1,0,0.5,-->,18.211702,-0.980674,4.337141
1,0.5,1,1,1,0,1,-->,14.913101,1.085624,-2.112588
1,0.5,1,1,1,0.5,0,-->,18.369717,-0.954866,4.378421
1,0.5,1,1,1,0.5,0.5,-->,18.145826,-0.982475,4.189024
1,0.5,1,1,1,0.5,1,-->,14.904610,1.077250,-2.118911
1,0.5,1,1,1,1,0,-->,15.381069,-0.160040,-1.464890
1,0.5,1,1,1,1,0.5,-->,15.192879,-0.191624,-1.570304
1,0.5,1,1,1,1,1,-->,14.757174,0.753416,-2.565675
1,1,0,0,0,0,0,-->,33.116699,26.200254,-61.656647
1,1,0,0,0,0,0.5,-->,25.484577,30.075546,-55.923653
1,1,0,0,0,0,1,-->,19.975657,34.973423,-54.054523
1,1,0,0,0,0.5,0,-->,29.836073,8.773524,-49.764462
1,1,0,0,0,0.5,0.5,-->,22.675173,16.603657,-46.099239
1,1,0,0,0,0.5,1,-->,18.991827,23.859520,-43.759281
1,1,0,0,0,1,0,-->,26.786470,-3.355653,-42.861919
1,1,0,0,0,1,0.5,-->,21.885471,9.293336,-38.835239
1,1,0,0,0,1,1,-->,18.565613,17.118484,-37.865910
1,1,0,0,0.5,0,0,-->,29.388023,18.474358,-23.185003
1,1,0,0,0.5,0,0.5,-->,22.256134,20.298489,-24.630932
1,1,0,0,0.5,0,1,-->,18.356539,21.398058,-24.901121
1,1,0,0,0.5,0.5,0,-->,24.830236,6.439629,-21.157471
1,1,0,0,0.5,0.5,0.5,-->,20.334713,12.053234,-22.624464
1,1,0,0,0.5,0.5,1,-->,15.931771,22.387449,-34.376587
1,1,0,0,0.5,1,0,-->,21.589527,-2.574369,-19.843500
1,1,0,0,0.5,1,0.5,-->,19.442726,2.628448,-28.457638
1,1,0,0,0.5,1,1,-->,14.982197,13.573593,-27.254333
1,1,0,0,1,0,0,-->,27.268801,18.188082,5.991891
1,1,0,0,1,0,0.5,-->,21.814217,16.767763,-1.215654
1,1,0,0,1,0,1,-->,18.058632,16.696661,-5.373489
1,1,0,0,1,0.5,0,-->,23.112427,7.761836,0.933207
1,1,0,0,1,0.5,0.5,-->,19.850111,13.342338,-3.262718
1,1,0,0,1,0.5,1,-->,14.781013,13.421268,-9.554823
1,1,0,0,1,1,0,-->,19.528526,-0.069179,-2.778669
1,1,0,0,1,1,0.5,-->,15.790137,3.955519,-7.852096
1,1,0,0,1,1,1,-->,10.554255,10.203175,-15.025602
1,1,0,0.5,0,0,0,-->,25.378016,15.893521,-38.882553
1,1,0,0.5,0,0,0.5,-->,20.892147,18.211624,-33.650772
1,1,0,0.5,0,0,1,-->,17.341488,21.134003,-31.178999
1,1,0,0.5,0,0.5,0,-->,22.676025,5.274064,-31.291183
1,1,0,0.5,0,0.5,0.5,-->,18.365030,9.963438,-28.984768
1,1,0,0.5,0,0.5,1,-->,17.187258,16.470922,-24.777969
1,1,0,0.5,0,1,0,-->,20.419506,-1.399647,-26.445244
1,1,0,0.5,0,1,0.5,-->,17.969582,6.068920,-23.085783
1,1,0,0.5,0,1,1,-->,17.035648,10.984565,-24.046007
1,1,0,0.5,0.5,0,0,-->,24.226030,10.763675,-11.729469
1,1,0,0.5,0.5,0,0.5,-->,18.834877,15.601272,-15.797622
1,1,0,0.5,0.5,0,1,-->,17.422180,17.468264,-15.876985
1,1,0,0.5,0.5,0.5,0,-->,20.669447,6.030497,-13.398833
1,1,0,0.5,0.5,0.5,0.5,-->,19.022070,10.147470,-18.958254
1,1,0,0.5,0.5,0.5,1,-->,15.513691,15.078830,-21.192778
1,1,0,0.5,0.5,1,0,-->,19.340469,0.212036,-12.168991
1,1,0,0.5,0.5,1,0.5,-->,17.390450,2.106113,-18.063471
1,1,0,0.5,0.5,1,1,-->,14.909191,8.668102,-17.530899
1,1,0,0.5,1,0,0,-->,23.748938,9.362386,8.153777
1,1,0,0.5,1,0,0.5,-->,19.119850,8.488235,0.227995
1,1,0,0.5,1,0,1,-->,16.809649,10.644422,-3.989125
1,1,0,0.5,1,0.5,0,-->,20.279503,1.672587,2.092859
1,1,0,0.5,1,0.5,0.5,-->,18.827356,7.751713,-0.350197
1,1,0,0.5,1,0.5,1,-->,14.830483,8.532146,-6.604540
1,1,0,0.5,1,1,0,-->,17.835869,0.299659,-2.342438
1,1,0,0.5,1,1,0.5,-->,15.519886,2.695978,-5.527343
1,1,0,0.5,1,1,1,-->,12.373385,6.012744,-9.856162
1,1,0,1,0,0,0,-->,17.069309,7.396462,-1.789689
1,1,0,1,0,0,0.5,-->,16.793861,7.956477,-3.156323
1,1,0,1,0,0,1,-->,15.465631,9.457244,-4.077425
1,1,0,1,0,0.5,0,-->,14.381200,2.447076,-2.429407
1,1,0,1,0,0.5,0.5,-->,15.819402,4.744372,-2.854681
1,1,0,1,0,0.5,1,-->,15.175282,6.152333,-4.045544
1,1,0,1,0,1,0,-->,15.152289,0.928085,-4.632613
1,1,0,1,0,1,0.5,-->,15.010188,1.418350,-4.364043
1,1,0,1,0,1,1,-->,14.817816,2.084469,-4.001527
1,1,0,1,0.5,0,0,-->,18.034599,2.449447,7.087554
1,1,0,1,0.5,0,0.5,-->,16.356710,4.600649,-0.780600
1,1,0,1,0.5,0,1,-->,15.252751,5.978485,-3.118280
1,1,0,1,0.5,0.5,0,-->,16.270527,3.863093,-0.988669
1,1,0,1,0.5,0.5,0.5,-->,16.000187,4.181334,-1.984261
1,1,0,1,0.5,0.5,1,-->,15.140637,5.343585,-3.433009
1,1,0,1,0.5,1,0,-->,15.257256,0.884843,-3.295616
1,1,0,1,0.5,1,0.5,-->,15.010193,0.951720,-3.687542
1,1,0,1,0.5,1,1,-->,14.801690,1.552300,-3.428860
1,1,0,1,1,0,0,-->,21.144533,2.069513,10.115460
1,1,0,1,1,0,0.5,-->,18.529465,1.983410,4.967663
1,1,0,1,1,0,1,-->,14.999136,1.867167,-1.979420
1,1,0,1,1,0.5,0,-->,18.561584,1.516461,4.813285
1,1,0,1,1,0.5,0.5,-->,18.104931,1.541706,3.968530
1,1,0,1,1,0.5,1,-->,14.901301,1.441787,-2.325825
1,1,0,1,1,1,0,-->,15.381129,0.834504,-1.714605
1,1,0,1,1,1,0.5,-->,15.126395,0.870754,-2.155146
1,1,0,1,1,1,1,-->,14.782611,0.918099,-2.751379
1,1,0.5,0,0,0,0,-->,32.543919,8.923251,-32.760643
1,1,0.5,0,0,0,0.5,-->,24.080257,16.656946,-32.894882
1,1,0.5,0,0,0,1,-->,19.196655,23.009415,-33.114780
1,1,0.5,0,0,0.5,0,-->,28.496754,-3.931482,-27.031111
1,1,0.5,0,0,0.5,0.5,-->,21.782459,7.482156,-29.450722
1,1,0.5,0,0,0.5,1,-->,18.376715,17.497841,-28.957951
1,1,0.5,0,0,1,0,-->,25.743464,-13.270082,-23.309757
1,1,0.5,0,0,1,0.5,-->,20.973261,0.946233,-24.534910
1,1,0.5,0,0,1,1,-->,15.507710,12.867607,-27.121714
1,1,0.5,0,0.5,0,0,-->,28.911581,13.420735,-6.972899
1,1,0.5,0,0.5,0,0.5,-->,22.212751,21.011042,-13.218555
1,1,0.5,0,0.5,0,1,-->,18.531414,21.910650,-16.842695
1,1,0.5,0,0.5,0.5,0,-->,25.574488,7.130052,-9.084871
1,1,0.5,0,0.5,0.5,0.5,-->,22.390388,16.013868,-32.315350
1,1,0.5,0,0.5,0.5,1,-->,15.841799,21.876225,-32.629047
1,1,0.5,0,0.5,1,0,-->,23.183786,-3.733201,-9.590298
1,1,0.5,0,0.5,1,0.5,-->,19.522228,2.009568,-26.260139
1,1,0.5,0,0.5,1,1,-->,14.735299,13.228025,-26.340498
1,1,0.5,0,1,0,0,-->,27.595217,18.088314,12.772035
1,1,0.5,0,1,0,0.5,-->,21.776352,18.594736,2.813377
1,1,0.5,0,1,0,1,-->,15.160995,13.904754,-8.818240
1,1,0.5,0,1,0.5,0,-->,23.898619,9.201578,5.619784
1,1,0.5,0,1,0.5,0.5,-->,19.902851,13.612351,-2.470149
1,1,0.5,0,1,0.5,1,-->,14.493123,13.135584,-9.814790
1,1,0.5,0,1,1,0,-->,19.540195,3.984899,-4.641292
1,1,0.5,0,1,1,0.5,-->,15.784679,4.504651,-8.043971
1,1,0.5,0,1,1,1,-->,10.545156,10.193067,-14.949819
1,1,0.5,0.5,0,0,0,-->,24.991486,5.419869,-18.801588
1,1,0.5,0.5,0,0,0.5,-->,19.598717,12.571055,-19.585707
1,1,0.5,0.5,0,0,1,-->,17.512457,17.565432,-18.628181
1,1,0.5,0.5,0,0.5,0,-->,22.069736,0.422727,-16.281738
1,1,0.5,0.5,0,0.5,0.5,-->,17.581738,5.684715,-17.266273
1,1,0.5,0.5,0,0.5,1,-->,16.280876,13.654164,-19.988068
1,1,0.5,0.5,0,1,0,-->,20.469402,-3.991906,-13.740914
1,1,0.5,0.5,0,1,0.5,-->,18.004045,1.174479,-17.202938
1,1,0.5,0.5,0,1,1,-->,15.224175,8.232327,-17.446354
1,1,0.5,0.5,0.5,0,0,-->,23.777718,12.156558,-3.494977
1,1,0.5,0.5,0.5,0,0.5,-->,18.219673,13.638874,-8.286291
1,1,0.5,0.5,0.5,0,1,-->,16.282408,15.147393,-16.470217
1,1,0.5,0.5,0.5,0.5,0,-->,20.341480,5.059877,-5.664979
1,1,0.5,0.5,0.5,0.5,0.5,-->,19.353758,10.827602,-20.101044
1,1,0.5,0.5,0.5,0.5,1,-->,15.345446,14.692831,-20.737068
1,1,0.5,0.5,0.5,1,0,-->,19.690218,0.157350,-12.118439
1,1,0.5,0.5,0.5,1,0.5,-->,17.405233,1.828515,-17.466059
1,1,0.5,0.5,0.5,1,1,-->,14.762193,8.444690,-16.968513
1,1,0.5,0.5,1,0,0,-->,23.188398,10.583261,7.783753
1,1,0.5,0.5,1,0,0.5,-->,19.678747,9.942266,1.772156
1,1,0.5,0.5,1,0,1,-->,15.055468,8.809455,-6.172685
1,1,0.5,0.5,1,0.5,0,-->,21.322552,7.108681,3.235488
1,1,0.5,0.5,1,0.5,0.5,-->,18.909367,8.359407,-0.135280
1,1,0.5,0.5,1,0.5,1,-->,14.655571,8.345059,-6.772597
1,1,0.5,0.5,1,1,0,-->,17.811338,2.737244,-3.604031
1,1,0.5,0.5,1,1,0.5,-->,15.511516,3.027199,-5.660868
1,1,0.5,0.5,1,1,1,-->,12.367759,6.006953,-9.809926
1,1,0.5,1,0,0,0,-->,18.038101,3.683256,1.463355
1,1,0.5,1,0,0,0.5,-->,16.306273,4.688561,-1.764739
1,1,0.5,1,0,0,1,-->,15.209810,5.886014,-3.406700
1,1,0.5,1,0,0.5,0,-->,16.368374,3.616806,-1.662213
1,1,0.5,1,0,0.5,0.5,-->,16.021759,4.130979,-2.163536
1,1,0.5,1,0,0.5,1,-->,15.146155,5.285007,-3.447996
1,1,0.5,1,0,1,0,-->,15.335673,0.452123,-3.456826
1,1,0.5,1,0,1,0.5,-->,15.031436,0.854658,-3.696943
1,1,0.5,1,0,1,1,-->,14.812970,1.505882,-3.416511
1,1,0.5,1,0.5,0,0,-->,16.685913,4.119427,-0.597807
1,1,0.5,1,0.5,0,0.5,-->,16.085560,4.201533,-1.909709
1,1,0.5,1,0.5,0,1,-->,15.142848,5.288625,-3.396037
1,1,0.5,1,0.5,0.5,0,-->,16.216263,4.141101,-1.909048
1,1,0.5,1,0.5,0.5,0.5,-->,15.983417,4.161027,-2.175642
1,1,0.5,1,0.5,0.5,1,-->,15.128276,5.210075,-3.410271
1,1,0.5,1,0.5,1,0,-->,15.199979,0.936277,-3.560394
1,1,0.5,1,0.5,1,0.5,-->,15.004903,0.920273,-3.669068
1,1,0.5,1,0.5,1,1,-->,14.801174,1.506992,-3.378832
1,1,0.5,1,1,0,0,-->,18.681036,1.611668,5.021924
1,1,0.5,1,1,0,0.5,-->,18.103502,1.536691,3.951142
1,1,0.5,1,1,0,1,-->,14.901827,1.422150,-2.337430
1,1,0.5,1,1,0.5,0,-->,18.252861,1.561526,3.970415
1,1,0.5,1,1,0.5,0.5,-->,18.018440,1.508329,3.759313
1,1,0.5,1,1,0.5,1,-->,14.892035,1.398713,-2.355699
1,1,0.5,1,1,1,0,-->,15.301876,0.930502,-2.101553
1,1,0.5,1,1,1,0.5,-->,15.115385,0.883475,-2.205539
1,1,0.5,1,1,1,1,-->,14.782611,0.918099,-2.746584
1,1,1,0,0,0,0,-->,31.331697,-1.092441,-4.649628
1,1,1,0,0,0,0.5,-->,24.075489,8.718260,-11.525846
1,1,1,0,0,0,1,-->,19.204620,16.364893,-17.521065
1,1,1,0,0,0.5,0,-->,28.393061,-11.499840,-6.034904
1,1,1,0,0,0.5,0.5,-->,22.176914,0.217158,-11.292744
1,1,1,0,0,0.5,1,-->,15.995034,12.639634,-16.369553
1,1,1,0,0,1,0,-->,25.834120,-19.103193,-8.714832
1,1,1,0,0,1,0.5,-->,19.964920,-7.542732,-11.372144
1,1,1,0,0,1,1,-->,12.015333,8.180467,-15.001435
1,1,1,0,0.5,0,0,-->,29.250729,11.241993,8.948284
1,1,1,0,0.5,0,0.5,-->,22.735304,13.672024,-0.719233
1,1,1,0,0.5,0,1,-->,15.848449,13.785334,-15.321059
1,1,1,0,0.5,0.5,0,-->,25.832949,0.996177,2.963377
1,1,1,0,0.5,0.5,0.5,-->,21.891642,4.206382,-7.573275
1,1,1,0,0.5,0.5,1,-->,15.132933,12.935106,-15.987581
1,1,1,0,0.5,1,0,-->,22.957058,-6.427173,-7.815337
1,1,1,0,0.5,1,0.5,-->,19.054449,-5.316409,-11.081512
1,1,1,0,0.5,1,1,-->,11.356943,9.013580,-14.905217
1,1,1,0,1,0,0,-->,28.126093,18.238466,16.572636
1,1,1,0,1,0,0.5,-->,21.210989,15.045285,4.108454
1,1,1,0,1,0,1,-->,11.839299,10.914633,-12.786739
1,1,1,0,1,0.5,0,-->,24.283567,13.903599,6.119898
1,1,1,0,1,0.5,0.5,-->,20.256966,13.936914,2.024980
1,1,1,0,1,0.5,1,-->,11.269878,10.519956,-13.693424
1,1,1,0,1,1,0,-->,19.553173,8.570083,-6.750285
1,1,1,0,1,1,0.5,-->,15.796803,8.900878,-10.062453
1,1,1,0,1,1,1,-->,10.533186,10.182793,-14.868230
1,1,1,0.5,0,0,0,-->,24.681192,-0.995577,-1.305276
1,1,1,0.5,0,0,0.5,-->,19.280859,4.241370,-7.239432
1,1,1,0.5,0,0,1,-->,17.455603,10.439734,-11.452342
1,1,1,0.5,0,0.5,0,-->,21.694637,-7.576254,-3.821949
1,1,1,0.5,0,0.5,0.5,-->,19.724203,0.850721,-5.850371
1,1,1,0.5,0,0.5,1,-->,15.535561,8.053174,-10.788662
1,1,1,0.5,0,1,0,-->,21.634403,-11.339997,-6.023619
1,1,1,0.5,0,1,0.5,-->,18.032778,-4.337521,-7.704224
1,1,1,0.5,0,1,1,-->,13.171135,5.117831,-9.975308
1,1,1,0.5,0.5,0,0,-->,23.573238,5.485560,4.344147
1,1,1,0.5,0.5,0,0.5,-->,20.018154,5.468340,-2.324328
1,1,1,0.5,0.5,0,1,-->,15.445350,8.737502,-10.167282
1,1,1,0.5,0.5,0.5,0,-->,21.936331,1.554687,-0.598415
1,1,1,0.5,0.5,0.5,0.5,-->,19.543150,2.696312,-4.576475
1,1,1,0.5,0.5,0.5,1,-->,15.018686,8.221808,-10.563129
1,1,1,0.5,0.5,1,0,-->,19.869484,-3.627825,-5.568639
1,1,1,0.5,0.5,1,0.5,-->,17.481499,-2.980591,-7.543522
1,1,1,0.5,0.5,1,1,-->,12.805025,5.504863,-9.867113
1,1,1,0.5,1,0,0,-->,23.131464,11.240990,9.507067
1,1,1,0.5,1,0,0.5,-->,18.848497,9.319464,1.781778
1,1,1,0.5,1,0,1,-->,13.067122,6.733991,-8.649263
1,1,1,0.5,1,0.5,0,-->,20.734385,8.667327,2.991450
1,1,1,0.5,1,0.5,0.5,-->,18.266033,8.662874,0.504955
1,1,1,0.5,1,0.5,1,-->,12.753725,6.390581,-9.139900
1,1,1,0.5,1,1,0,-->,17.782925,5.498997,-5.030033
1,1,1,0.5,1,1,0.5,-->,15.484174,5.673605,-7.027039
1,1,1,0.5,1,1,1,-->,12.361531,5.997119,-9.756258
1,1,1,1,0,0,0,-->,18.613140,1.107800,4.205105
1,1,1,1,0,0,0.5,-->,17.041002,1.420402,1.289704
1,1,1,1,0,0,1,-->,14.919922,1.846860,-2.651414
1,1,1,1,0,0.5,0,-->,17.237158,0.570159,1.370442
1,1,1,1,0,0.5,0.5,-->,16.816097,0.963301,0.876119
1,1,1,1,0,0.5,1,-->,14.869423,1.398409,-2.693630
1,1,1,1,0,1,0,-->,15.543085,-0.086187,-2.120628
1,1,1,1,0,1,0.5,-->,15.230170,0.314479,-2.388233
1,1,1,1,0,1,1,-->,14.807259,0.850752,-2.749289
1,1,1,1,0.5,0,0,-->,17.364914,1.098969,1.940503
1,1,1,1,0.5,0,0.5,-->,16.821056,1.051381,0.945807
1,1,1,1,0.5,0,1,-->,14.860101,1.416997,-2.692756
1,1,1,1,0.5,0.5,0,-->,16.983509,1.039814,0.984003
1,1,1,1,0.5,0.5,0.5,-->,16.752092,1.013915,0.793633
1,1,1,1,0.5,0.5,1,-->,14.853436,1.388195,-2.695849
1,1,1,1,0.5,1,0,-->,15.392956,0.433200,-2.314957
1,1,1,1,0.5,1,0.5,-->,15.199554,0.408881,-2.410537
1,1,1,1,0.5,1,1,-->,14.795819,0.883673,-2.744030
1,1,1,1,1,0,0,-->,15.889872,1.093148,-0.739874
1,1,1,1,1,0,0.5,-->,15.422355,1.015587,-1.594372
1,1,1,1,1,0,1,-->,14.791412,0.913813,-2.742754
1,1,1,1,1,0.5,0,-->,15.586901,1.068677,-1.548797
1,1,1,1,1,0.5,0.5,-->,15.378772,1.015404,-1.700378
1,1,1,1,1,0.5,1,-->,14.786859,0.917278,-2.742260
1,1,1,1,1,1,0,-->,15.213901,1.043097,-2.539890
1,1,1,1,1,1,0.5,-->,15.029849,0.988639,-2.625758
1,1,1,1,1,1,1,-->,14.780850,0.918054,-2.741591
-0.1,0.5,0.5,0.5,0.5,0.5,0.5,-->,30.211926,18.823605,14.411692
1.1,0.5,0.5,0.5,0.5,0.5,0.5,-->,25.924742,-6.011429,-14.337725
0.5,-0.1,0.5,0.5,0.5,0.5,0.5,-->,31.096918,-1.699611,9.027578
0.5,1.1,0.5,0.5,0.5,0.5,0.5,-->,24.321774,26.457335,-2.395186
0.5,0.5,-0.1,0.5,0.5,0.5,0.5,-->,24.857475,11.614571,-6.508511
0.5,0.5,1.1,0.5,0.5,0.5,0.5,-->,34.703053,4.585556,21.793890
0.5,0.5,0.5,-0.1,0.5,0.5,0.5,-->,34.599377,15.039372,8.464509
0.5,0.5,0.5,1.1,0.5,0.5,0.5,-->,18.666866,0.741500,-2.536212
0.5,0.5,0.5,0.5,-0.1,0.5,0.5,-->,28.426706,1.968956,-6.114594
0.5,0.5,0.5,0.5,1.1,0.5,0.5,-->,29.592587,21.259274,21.469326
0.5,0.5,0.5,0.5,0.5,-0.1,0.5,-->,29.505041,23.164173,8.342171
0.5,0.5,0.5,0.5,0.5,1.1,0.5,-->,27.290192,-16.493349,-1.531759
0.5,0.5,0.5,0.5,0.5,0.5,-0.1,-->,34.889812,4.328446,15.695339
0.5,0.5,0.5,0.5,0.5,0.5,1.1,-->,17.670954,17.383314,-16.256638
