0,0,0,0,0,0,0,-->,99.610893,-0.498055,-0.501945
0,0,0,0,0,0,0.5,-->,61.064369,16.056822,-23.397289
0,0,0,0,0,0,1,-->,16.584335,57.490269,-62.112843
0,0,0,0,0,0.5,0,-->,79.510971,-36.586861,1.314995
0,0,0,0,0,0.5,0.5,-->,48.256035,-11.195613,-18.217484
0,0,0,0,0,0.5,1,-->,12.718537,34.495605,-50.300644
0,0,0,0,0,1,0,-->,60.629875,-84.163422,3.793770
0,0,0,0,0,1,0.5,-->,36.310066,-45.983242,-12.985256
0,0,0,0,0,1,1,-->,9.957290,8.178992,-38.548634
0,0,0,0,0.5,0,0,-->,79.671249,35.624451,38.620300
0,0,0,0,0.5,0,0.5,-->,49.130856,34.835945,13.098528
0,0,0,0,0.5,0,1,-->,15.888873,46.543331,-19.976418
0,0,0,0,0.5,0.5,0,-->,60.050369,3.880283,27.545475
0,0,0,0,0.5,0.5,0.5,-->,36.162086,11.956674,8.009476
0,0,0,0,0.5,0.5,1,-->,9.407985,32.161346,-18.824600
0,0,0,0,0.5,1,0,-->,41.312454,-40.882317,17.303839
0,0,0,0,0.5,1,0.5,-->,23.424097,-19.352863,2.667404
0,0,0,0,0.5,1,1,-->,4.094098,11.088056,-17.174204
0,0,0,0,1,0,0,-->,66.524300,62.070042,111.206223
0,0,0,0,1,0,0.5,-->,41.980515,49.302528,71.277298
0,0,0,0,1,0,1,-->,16.874649,42.961094,30.692602
0,0,0,0,1,0.5,0,-->,47.103966,35.566010,79.778198
0,0,0,0,1,0.5,0.5,-->,28.423956,30.844685,49.575172
0,0,0,0,1,0.5,1,-->,8.631851,32.595024,17.230730
0,0,0,0,1,1,0,-->,27.196730,-0.175102,48.801548
0,0,0,0,1,1,0.5,-->,14.148462,6.818286,25.900558
0,0,0,0,1,1,1,-->,1.849797,13.789878,5.894935
0,0,0,0.5,0,0,0,-->,63.573032,-1.263151,-0.643914
0,0,0,0.5,0,0,0.5,-->,37.671272,11.550871,-16.509771
0,0,0,0.5,0,0,1,-->,7.125287,43.402599,-43.804337
0,0,0,0.5,0,0.5,0,-->,50.478424,-26.111052,0.852651
0,0,0,0.5,0,0.5,0.5,-->,29.270809,-6.782401,-12.749995
0,0,0,0.5,0,0.5,1,-->,4.453796,26.987785,-35.319584
0,0,0,0.5,0,1,0,-->,37.959152,-59.771873,2.788192
0,0,0,0.5,0,1,0.5,-->,20.974562,-30.389257,-9.249464
0,0,0,0.5,0,1,1,-->,2.795221,8.676690,-26.427931
0,0,0,0.5,0.5,0,0,-->,50.746185,22.865570,27.707071
0,0,0,0.5,0.5,0,0.5,-->,30.168596,24.176363,10.340165
0,0,0,0.5,0.5,0,1,-->,6.462411,36.149734,-13.340157
0,0,0,0.5,0.5,0.5,0,-->,37.876915,1.049678,20.683088
0,0,0,0.5,0.5,0.5,0.5,-->,21.164730,8.931292,6.822101
0,0,0,0.5,0.5,0.5,1,-->,2.698370,23.005980,-11.580502
0,0,0,0.5,0.5,1,0,-->,24.830780,-30.682518,14.245185
0,0,0,0.5,0.5,1,0.5,-->,12.176549,-11.970217,2.754389
0,0,0,0.5,0.5,1,1,-->,0.572799,8.433063,-8.691243
0,0,0,0.5,1,0,0,-->,42.496525,40.210545,75.263329
0,0,0,0.5,1,0,0.5,-->,25.358152,34.118725,45.752712
0,0,0,0.5,1,0,1,-->,7.021364,33.556129,15.076656
0,0,0,0.5,1,0.5,0,-->,29.355717,22.161877,52.653374
0,0,0,0.5,1,0.5,0.5,-->,15.937771,21.780226,29.725721
0,0,0,0.5,1,0.5,1,-->,2.354910,22.328690,7.302030
0,0,0,0.5,1,1,0,-->,15.170648,-3.016225,29.496367
0,0,0,0.5,1,1,0.5,-->,6.226998,4.820049,13.264503
0,0,0,0.5,1,1,1,-->,0.000000,9.115156,2.701419
0,0,0,1,0,0,0,-->,7.000957,-0.902725,0.097282
0,0,0,1,0,0,0.5,-->,2.087348,7.472869,-3.682223
0,0,0,1,0,0,1,-->,0.000000,11.540854,-4.844360
0,0,0,1,0,0.5,0,-->,4.970977,-8.263090,0.586514
0,0,0,1,0,0.5,0.5,-->,0.000000,1.128091,-2.760058
0,0,0,1,0,0.5,1,-->,0.000000,6.022092,-1.591210
0,0,0,1,0,1,0,-->,2.012434,-11.801558,0.420235
0,0,0,1,0,1,0.5,-->,0.000000,1.218405,-1.538074
0,0,0,1,0,1,1,-->,0.000000,6.420234,-1.933853
0,0,0,1,0.5,0,0,-->,9.372547,3.073799,14.401037
0,0,0,1,0.5,0,0.5,-->,0.107348,6.384805,1.532268
0,0,0,1,0.5,0,1,-->,0.000000,6.418547,0.562332
0,0,0,1,0.5,0.5,0,-->,1.162040,-2.484573,4.993228
0,0,0,1,0.5,0.5,0.5,-->,0.000000,2.394396,0.669562
0,0,0,1,0.5,0.5,1,-->,0.000000,4.542223,1.289430
0,0,0,1,0.5,1,0,-->,0.000000,-4.776549,1.913387
0,0,0,1,0.5,1,0.5,-->,0.000000,2.895391,0.102602
0,0,0,1,0.5,1,1,-->,0.000000,5.368466,0.885558
0,0,0,1,1,0,0,-->,10.068247,5.011680,21.459143
0,0,0,1,1,0,0.5,-->,1.201407,5.812541,4.840857
0,0,0,1,1,0,1,-->,0.000000,10.210120,2.186775
0,0,0,1,1,0.5,0,-->,2.490258,-1.462747,7.744174
0,0,0,1,1,0.5,0.5,-->,0.000000,1.060014,1.307153
0,0,0,1,1,0.5,1,-->,0.000000,5.273228,0.790487
0,0,0,1,1,1,0,-->,0.858780,-5.766540,5.618675
0,0,0,1,1,1,0.5,-->,0.000000,0.586620,1.377950
0,0,0,1,1,1,1,-->,0.000000,5.392997,1.108955
0,0,0.5,0,0,0,0,-->,95.982391,-4.743962,48.164566
0,0,0.5,0,0,0,0.5,-->,59.083515,9.615726,16.108042
0,0,0.5,0,0,0,1,-->,18.556425,40.557877,-26.663710
0,0,0.5,0,0,0.5,0,-->,77.034721,-38.498783,39.453335
0,0,0.5,0,0,0.5,0.5,-->,46.950546,-15.855433,13.266038
0,0,0.5,0,0,0.5,1,-->,13.933958,19.934742,-21.715235
0,0,0.5,0,0,1,0,-->,59.970356,-82.114090,32.598202
0,0,0.5,0,0,1,0.5,-->,35.917259,-48.601856,11.225274
0,0,0.5,0,0,1,1,-->,10.593014,-5.297060,-16.398939
0,0,0.5,0,0.5,0,0,-->,78.431740,34.096127,70.750557
0,0,0.5,0,0.5,0,0.5,-->,49.215977,33.076881,40.594414
0,0,0.5,0,0.5,0,1,-->,18.839638,41.607121,6.888065
0,0,0.5,0,0.5,0.5,0,-->,59.929447,3.329632,54.195282
0,0,0.5,0,0.5,0.5,0.5,-->,36.580616,10.846343,30.750359
0,0,0.5,0,0.5,0.5,1,-->,11.925539,27.053856,3.028992
0,0,0.5,0,0.5,1,0,-->,42.799637,-37.519150,39.960457
0,0,0.5,0,0.5,1,0.5,-->,24.869167,-18.660723,21.549442
0,0,0.5,0,0.5,1,1,-->,5.090786,6.970657,-1.943094
0,0,0.5,0,1,0,0,-->,67.404037,59.838238,117.100571
0,0,0.5,0,1,0,0.5,-->,43.318279,48.624844,76.322731
0,0,0.5,0,1,0,1,-->,20.086508,43.293865,38.085896
0,0,0.5,0,1,0.5,0,-->,48.875187,33.436008,85.377335
0,0,0.5,0,1,0.5,0.5,-->,30.334541,29.908035,54.491013
0,0,0.5,0,1,0.5,1,-->,10.939140,32.593578,23.448717
0,0,0.5,0,1,1,0,-->,31.084541,-0.085746,56.780102
0,0,0.5,0,1,1,0.5,-->,16.774132,7.216155,32.658375
0,0,0.5,0,1,1,1,-->,0.000000,13.703288,6.599159
0,0,0.5,0.5,0,0,0,-->,60.527920,-4.529676,30.270203
0,0,0.5,0.5,0,0,0.5,-->,36.292534,6.902687,9.863837
0,0,0.5,0.5,0,0,1,-->,8.337136,31.707634,-18.533247
0,0,0.5,0.5,0,0.5,0,-->,48.714260,-27.876574,26.248133
0,0,0.5,0.5,0,0.5,0.5,-->,28.256750,-10.515343,8.771913
0,0,0.5,0.5,0,0.5,1,-->,5.035644,17.297638,-14.881659
0,0,0.5,0.5,0,1,0,-->,37.656532,-58.959049,23.887821
0,0,0.5,0.5,0,1,0.5,-->,20.769121,-32.966164,8.586619
0,0,0.5,0.5,0,1,1,-->,2.943645,1.444356,-10.635120
0,0,0.5,0.5,0.5,0,0,-->,49.923359,21.489101,49.044765
0,0,0.5,0.5,0.5,0,0.5,-->,30.070486,22.927536,28.621729
0,0,0.5,0.5,0.5,0,1,-->,8.441789,32.614677,4.487156
0,0,0.5,0.5,0.5,0.5,0,-->,37.699909,0.540810,38.699608
0,0,0.5,0.5,0.5,0.5,0.5,-->,25.758833,5.428229,23.219954
0,0,0.5,0.5,0.5,0.5,1,-->,4.180642,22.163837,-1.305526
0,0,0.5,0.5,0.5,1,0,-->,25.977573,-28.397320,30.236095
0,0,0.5,0.5,0.5,1,0.5,-->,16.608166,-19.249889,17.859718
0,0,0.5,0.5,0.5,1,1,-->,1.660762,6.343889,-0.823302
0,0,0.5,0.5,1,0,0,-->,43.157101,38.920284,78.012512
0,0,0.5,0.5,1,0,0.5,-->,26.351675,33.728607,48.605663
0,0,0.5,0.5,1,0,1,-->,9.105034,33.933388,20.079802
0,0,0.5,0.5,1,0.5,0,-->,30.621162,20.944895,55.842480
0,0,0.5,0.5,1,0.5,0.5,-->,20.154936,21.550461,38.646820
0,0,0.5,0.5,1,0.5,1,-->,4.887188,21.333994,12.422058
0,0,0.5,0.5,1,1,0,-->,17.956635,-2.588550,34.992207
0,0,0.5,0.5,1,1,0.5,-->,7.498659,6.549230,16.732805
0,0,0.5,0.5,1,1,1,-->,0.082036,9.185437,4.446803
0,0,0.5,1,0,0,0,-->,6.273259,-3.864902,5.187428
0,0,0.5,1,0,0,0.5,-->,0.000000,3.126693,-0.278107
0,0,0.5,1,0,0,1,-->,0.000000,6.595770,-0.729226
0,0,0.5,1,0,0.5,0,-->,4.341192,-10.257093,4.991769
0,0,0.5,1,0,0.5,0.5,-->,0.000000,0.285251,-0.259731
0,0,0.5,1,0,0.5,1,-->,0.000000,4.820064,0.361003
0,0,0.5,1,0,1,0,-->,2.696243,-14.299188,5.271252
0,0,0.5,1,0,1,0.5,-->,0.000000,0.486351,0.353723
0,0,0.5,1,0,1,1,-->,0.000000,5.143944,-0.139232
0,0,0.5,1,0.5,0,0,-->,8.362750,3.387328,15.132011
0,0,0.5,1,0.5,0,0.5,-->,0.015855,5.720935,2.345470
0,0,0.5,1,0.5,0,1,-->,0.000000,5.478721,1.659759
0,0,0.5,1,0.5,0.5,0,-->,0.725017,-2.501809,5.731909
0,0,0.5,1,0.5,0.5,0.5,-->,1.857596,-0.397816,1.448839
0,0,0.5,1,0.5,0.5,1,-->,0.000000,4.452670,-1.496930
0,0,0.5,1,0.5,1,0,-->,0.000000,-4.777028,3.024600
0,0,0.5,1,0.5,1,0.5,-->,0.169964,-4.420265,0.317929
0,0,0.5,1,0.5,1,1,-->,0.000000,3.065242,-1.172442
0,0,0.5,1,1,0,0,-->,10.374660,6.382738,22.196562
0,0,0.5,1,1,0,0.5,-->,1.149974,6.482034,4.810078
0,0,0.5,1,1,0,1,-->,0.000000,7.615316,1.821584
0,0,0.5,1,1,0.5,0,-->,2.257949,-0.973728,7.329617
0,0,0.5,1,1,0.5,0.5,-->,2.607918,2.370077,7.645106
0,0,0.5,1,1,0.5,1,-->,0.000000,4.473264,0.470666
0,0,0.5,1,1,1,0,-->,0.000000,-5.199033,3.735177
0,0,0.5,1,1,1,0.5,-->,0.000000,-2.603293,1.934165
0,0,0.5,1,1,1,1,-->,0.000000,2.294644,-0.219165
0,0,1,0,0,0,0,-->,92.847054,-5.093383,104.482483
0,0,1,0,0,0,0.5,-->,57.873199,7.634999,63.480984
0,0,1,0,0,0,1,-->,21.686857,30.505835,17.661474
0,0,1,0,0,0.5,0,-->,75.277771,-37.180374,82.615219
0,0,1,0,0,0.5,0.5,-->,46.294060,-16.882198,50.472668
0,0,1,0,0,0.5,1,-->,16.350306,10.469631,14.225137
0,0,1,0,0,1,0,-->,60.084206,-77.019455,64.175095
0,0,1,0,0,1,0.5,-->,36.217560,-47.581131,38.985641
0,0,1,0,0,1,1,-->,12.583788,-14.622565,11.264594
0,0,1,0,0.5,0,0,-->,77.717598,33.323689,109.040398
0,0,1,0,0.5,0,0.5,-->,49.530914,32.622562,72.914337
0,0,1,0,0.5,0,1,-->,22.099199,39.240150,35.951141
0,0,1,0,0.5,0.5,0,-->,60.214405,3.519044,84.215919
0,0,1,0,0.5,0.5,0.5,-->,37.511410,10.689959,56.204510
0,0,1,0,0.5,0.5,1,-->,14.690817,23.863411,25.133257
0,0,1,0,0.5,1,0,-->,44.791035,-33.591324,63.579334
0,0,1,0,0.5,1,0.5,-->,27.412033,-18.982391,42.411720
0,0,1,0,0.5,1,1,-->,8.820758,4.703167,15.421176
0,0,1,0,1,0,0,-->,68.398415,57.420231,121.342407
0,0,1,0,1,0,0.5,-->,44.694839,47.902046,80.328880
0,0,1,0,1,0,1,-->,23.299541,43.832691,44.813221
0,0,1,0,1,0.5,0,-->,50.800629,31.181316,90.119698
0,0,1,0,1,0.5,0.5,-->,32.988758,29.715416,60.633537
0,0,1,0,1,0.5,1,-->,15.061207,31.176027,30.484905
0,0,1,0,1,1,0,-->,34.992630,-0.132301,64.163422
0,0,1,0,1,1,0.5,-->,20.989660,6.404518,39.565063
0,0,1,0,1,1,1,-->,7.782219,16.832678,17.599218
0,0,1,0.5,0,0,0,-->,58.164551,-5.493107,70.190437
0,0,1,0.5,0,0,0.5,-->,35.294003,4.926003,43.792217
0,0,1,0.5,0,0,1,-->,10.383554,24.436968,11.938830
0,0,1,0.5,0,0.5,0,-->,47.439102,-27.809217,57.267982
0,0,1,0.5,0,0.5,0.5,-->,27.752382,-12.040992,35.451847
0,0,1,0.5,0,0.5,1,-->,6.289203,10.743383,8.102723
0,0,1,0.5,0,1,0,-->,37.899403,-55.867149,47.079678
0,0,1,0.5,0,1,0.5,-->,21.418003,-34.834335,29.260962
0,0,1,0.5,0,1,1,-->,4.074653,-3.990280,5.376035
0,0,1,0.5,0.5,0,0,-->,49.321072,20.779011,75.180946
0,0,1,0.5,0.5,0,0.5,-->,30.233229,22.420141,49.171467
0,0,1,0.5,0.5,0,1,-->,10.419274,30.926792,20.200073
0,0,1,0.5,0.5,0.5,0,-->,37.882526,0.424460,58.780544
0,0,1,0.5,0.5,0.5,0.5,-->,25.641609,4.572712,42.657642
0,0,1,0.5,0.5,0.5,1,-->,6.245233,16.958178,12.880967
0,0,1,0.5,0.5,1,0,-->,27.426546,-25.677145,45.213737
0,0,1,0.5,0.5,1,0.5,-->,18.000982,-18.249950,29.729187
0,0,1,0.5,0.5,1,1,-->,3.609166,2.849125,7.467686
0,0,1,0.5,1,0,0,-->,43.883152,37.513344,80.206085
0,0,1,0.5,1,0,0.5,-->,27.703016,33.762016,52.166512
0,0,1,0.5,1,0,1,-->,11.697876,34.228783,24.765589
0,0,1,0.5,1,0.5,0,-->,31.954130,19.633615,58.734474
0,0,1,0.5,1,0.5,0.5,-->,21.893528,20.843424,41.949894
0,0,1,0.5,1,0.5,1,-->,8.097677,25.097448,18.110672
0,0,1,0.5,1,1,0,-->,20.704575,-2.272088,40.150326
0,0,1,0.5,1,1,0.5,-->,13.517603,2.638860,27.144535
0,0,1,0.5,1,1,1,-->,2.798476,9.377859,8.295464
0,0,1,1,0,0,0,-->,5.803226,-6.357978,9.412452
0,0,1,1,0,0,0.5,-->,0.000000,1.491534,0.930912
0,0,1,1,0,0,1,-->,0.000000,9.225684,1.147865
0,0,1,1,0,0.5,0,-->,5.130722,-12.463840,8.691646
0,0,1,1,0,0.5,0.5,-->,0.000000,-1.262231,-0.511453
0,0,1,1,0,0.5,1,-->,0.000000,4.851375,0.407528
0,0,1,1,0,1,0,-->,3.707194,-16.766539,8.684821
0,0,1,1,0,1,0.5,-->,0.000000,-2.363405,1.487293
0,0,1,1,0,1,1,-->,0.000000,4.396888,0.743187
0,0,1,1,0.5,0,0,-->,9.361333,2.952571,17.598019
0,0,1,1,0.5,0,0.5,-->,0.118041,5.919695,1.452031
0,0,1,1,0.5,0,1,-->,0.000000,7.451757,1.462078
0,0,1,1,0.5,0.5,0,-->,1.149259,-3.175186,5.198266
0,0,1,1,0.5,0.5,0.5,-->,1.798484,-2.075464,4.067750
0,0,1,1,0.5,0.5,1,-->,0.000000,4.170664,0.028916
0,0,1,1,0.5,1,0,-->,0.000000,-6.172700,3.842665
0,0,1,1,0.5,1,0.5,-->,0.552374,-6.511338,2.845903
0,0,1,1,0.5,1,1,-->,0.000000,1.867592,-0.420995
0,0,1,1,1,0,0,-->,10.914867,7.525291,23.276266
0,0,1,1,1,0,0.5,-->,1.290440,9.565188,6.236750
0,0,1,1,1,0,1,-->,0.000000,11.392997,3.330742
0,0,1,1,1,0.5,0,-->,2.919411,0.199466,8.420432
0,0,1,1,1,0.5,0.5,-->,2.975033,3.820277,8.652979
0,0,1,1,1,0.5,1,-->,0.000000,5.076687,0.936825
0,0,1,1,1,1,0,-->,1.750999,-5.175094,7.307395
0,0,1,1,1,1,0.5,-->,0.032975,-2.847020,2.991648
0,0,1,1,1,1,1,-->,0.000000,-0.521400,-1.797668
0,0.5,0,0,0,0,0,-->,72.562622,37.666004,-5.236005
0,0.5,0,0,0,0,0.5,-->,44.907738,39.037624,-21.245571
0,0.5,0,0,0,0,1,-->,14.361141,56.668129,-47.031368
0,0.5,0,0,0,0.5,0,-->,55.491638,1.834929,-6.705812
0,0.5,0,0,0,0.5,0.5,-->,33.546848,13.517995,-19.712454
0,0.5,0,0,0,0.5,1,-->,8.701859,40.133121,-41.504475
0,0.5,0,0,0,1,0,-->,39.388809,-48.823990,-8.293671
0,0.5,0,0,0,1,0.5,-->,22.483965,-20.589188,-18.986980
0,0.5,0,0,0,1,1,-->,4.371152,17.874355,-35.936413
0,0.5,0,0,0.5,0,0,-->,61.696583,56.982723,33.300903
0,0.5,0,0,0.5,0,0.5,-->,38.847004,48.529194,13.926701
0,0.5,0,0,0.5,0,1,-->,14.910274,49.215378,-9.174630
0,0.5,0,0,0.5,0.5,0,-->,44.395741,26.644831,21.052975
0,0.5,0,0,0.5,0.5,0.5,-->,26.782051,27.173018,6.771487
0,0.5,0,0,0.5,0.5,1,-->,7.440915,37.395367,-12.227592
0,0.5,0,0,0.5,1,0,-->,26.843367,-17.137909,8.385078
0,0.5,0,0,0.5,1,0.5,-->,14.286942,-1.921177,-1.919307
0,0.5,0,0,0.5,1,1,-->,1.286025,16.022350,-14.997438
0,0.5,0,0,1,0,0,-->,55.100178,69.921913,93.330734
0,0.5,0,0,1,0,0.5,-->,35.382988,55.483704,60.714607
0,0.5,0,0,1,0,1,-->,16.252491,47.073734,29.871466
0,0.5,0,0,1,0.5,0,-->,37.496395,44.418076,64.347183
0,0.5,0,0,1,0.5,0.5,-->,22.865421,37.798359,40.304703
0,0.5,0,0,1,0.5,1,-->,7.043258,37.536079,15.490226
0,0.5,0,0,1,1,0,-->,18.498583,11.135538,33.892349
0,0.5,0,0,1,1,0.5,-->,8.166351,16.070805,16.551645
0,0.5,0,0,1,1,1,-->,0.000000,13.953482,2.232844
0,0.5,0,0.5,0,0,0,-->,45.972630,23.696022,-3.704459
0,0.5,0,0.5,0,0,0.5,-->,27.108360,27.280447,-14.909245
0,0.5,0,0.5,0,0,1,-->,5.369704,43.213585,-33.349648
0,0.5,0,0.5,0,0.5,0,-->,34.483753,-0.084834,-4.691046
0,0.5,0,0.5,0,0.5,0.5,-->,19.266191,10.351990,-13.793472
0,0.5,0,0.5,0,0.5,1,-->,2.323064,27.879324,-27.721746
0,0.5,0,0.5,0,1,0,-->,22.791811,-35.112267,-6.055971
0,0.5,0,0.5,0,1,0.5,-->,11.193912,-11.861884,-13.415644
0,0.5,0,0.5,0,1,1,-->,0.610921,11.617929,-21.915705
0,0.5,0,0.5,0.5,0,0,-->,39.259415,36.916500,24.712118
0,0.5,0,0.5,0.5,0,0.5,-->,23.356228,33.537933,11.026211
0,0.5,0,0.5,0.5,0,1,-->,5.675055,38.208263,-6.225350
0,0.5,0,0.5,0.5,0.5,0,-->,27.378794,16.454144,16.456255
0,0.5,0,0.5,0.5,0.5,0.5,-->,18.469830,18.588047,6.034221
0,0.5,0,0.5,0.5,0.5,1,-->,1.993077,26.147697,-9.908394
0,0.5,0,0.5,0.5,1,0,-->,14.439784,-13.867272,7.256934
0,0.5,0,0.5,0.5,1,0.5,-->,8.519053,-5.679510,0.728368
0,0.5,0,0.5,0.5,1,1,-->,0.252456,10.542633,-7.311127
0,0.5,0,0.5,1,0,0,-->,35.017475,46.022362,63.041862
0,0.5,0,0.5,1,0,0.5,-->,20.977011,38.797478,38.497566
0,0.5,0,0.5,1,0,1,-->,6.578199,36.665123,14.519546
0,0.5,0,0.5,1,0.5,0,-->,22.856022,28.605070,41.778053
0,0.5,0,0.5,1,0.5,0.5,-->,14.702347,28.212414,28.553120
0,0.5,0,0.5,1,0.5,1,-->,2.868979,22.022835,8.230442
0,0.5,0,0.5,1,1,0,-->,8.673854,5.704687,18.784771
0,0.5,0,0.5,1,1,0.5,-->,1.742809,12.990675,6.026636
0,0.5,0,0.5,1,1,1,-->,0.000000,9.689032,1.512448
0,0.5,0,1,0,0,0,-->,4.055185,7.681934,2.341457
0,0.5,0,1,0,0,0.5,-->,0.979482,9.225533,-1.369447
0,0.5,0,1,0,0,1,-->,0.000000,11.278015,-2.697726
0,0.5,0,1,0,0.5,0,-->,0.048619,-0.724553,-1.017806
0,0.5,0,1,0,0.5,0.5,-->,0.000000,2.770834,-1.768843
0,0.5,0,1,0,0.5,1,-->,0.000000,5.277073,-0.250399
0,0.5,0,1,0,1,0,-->,0.000000,-3.126313,-1.442836
0,0.5,0,1,0,1,0.5,-->,0.000000,3.337156,-1.580236
0,0.5,0,1,0,1,1,-->,0.000000,5.768159,-0.860912
0,0.5,0,1,0.5,0,0,-->,6.750278,8.790668,12.692345
0,0.5,0,1,0.5,0,0.5,-->,0.000000,6.687147,1.498830
0,0.5,0,1,0.5,0,1,-->,0.000000,6.163641,1.359271
0,0.5,0,1,0.5,0.5,0,-->,0.140429,0.813392,3.261783
0,0.5,0,1,0.5,0.5,0.5,-->,1.496634,1.500699,0.537922
0,0.5,0,1,0.5,0.5,1,-->,0.000000,5.013246,-1.891919
0,0.5,0,1,0.5,1,0,-->,0.000000,-1.314547,0.799120
0,0.5,0,1,0.5,1,0.5,-->,0.046397,-2.681676,-0.808049
0,0.5,0,1,0.5,1,1,-->,0.000000,3.311560,-1.464343
0,0.5,0,1,1,0,0,-->,8.982191,9.303565,19.679668
0,0.5,0,1,1,0,0.5,-->,0.586188,6.070106,3.555401
0,0.5,0,1,1,0,1,-->,0.000000,7.445617,1.144613
0,0.5,0,1,1,0.5,0,-->,1.520204,-0.257755,5.880390
0,0.5,0,1,1,0.5,0.5,-->,2.362369,2.984808,7.047611
0,0.5,0,1,1,0.5,1,-->,0.000000,4.556146,0.200424
0,0.5,0,1,1,1,0,-->,0.000000,-3.025831,2.940503
0,0.5,0,1,1,1,0.5,-->,0.000000,-2.104525,1.625104
0,0.5,0,1,1,1,1,-->,0.000000,2.387055,-0.418122
0,0.5,0.5,0,0,0,0,-->,70.243210,34.675671,32.496151
0,0.5,0.5,0,0,0,0.5,-->,43.974792,34.957340,10.435889
0,0.5,0.5,0,0,0,1,-->,16.095533,46.912991,-17.439772
0,0.5,0.5,0,0,0.5,0,-->,53.971790,0.311089,23.560978
0,0.5,0.5,0,0,0.5,0.5,-->,32.768616,10.312609,5.760164
0,0.5,0.5,0,0,0.5,1,-->,9.687455,31.539728,-17.849215
0,0.5,0.5,0,0,1,0,-->,38.998844,-47.709686,15.833241
0,0.5,0.5,0,0,1,0.5,-->,22.436663,-23.441938,1.524395
0,0.5,0.5,0,0,1,1,-->,4.349271,9.585859,-18.134451
0,0.5,0.5,0,0.5,0,0,-->,61.052906,55.793659,59.087658
0,0.5,0.5,0,0.5,0,0.5,-->,39.089573,47.543648,36.054070
0,0.5,0.5,0,0.5,0,1,-->,17.239338,47.083420,12.458567
0,0.5,0.5,0,0.5,0.5,0,-->,44.421951,26.355774,42.489525
0,0.5,0.5,0,0.5,0.5,0.5,-->,33.417984,24.224529,23.808466
0,0.5,0.5,0,0.5,0.5,1,-->,7.875140,37.517204,-4.689473
0,0.5,0.5,0,0.5,1,0,-->,28.312843,-14.102381,27.342155
0,0.5,0.5,0,0.5,1,0.5,-->,20.377979,-10.793937,14.791732
0,0.5,0.5,0,0.5,1,1,-->,2.396689,14.006360,-7.320885
0,0.5,0.5,0,1,0,0,-->,55.549248,68.772293,97.828735
0,0.5,0.5,0,1,0,0.5,-->,36.447121,55.447987,64.891678
0,0.5,0.5,0,1,0,1,-->,18.309555,48.004608,35.680428
0,0.5,0.5,0,1,0.5,0,-->,38.686787,43.558666,68.572449
0,0.5,0.5,0,1,0.5,0.5,-->,27.538548,39.979259,50.396992
0,0.5,0.5,0,1,0.5,1,-->,8.777439,35.862514,18.001511
0,0.5,0.5,0,1,1,0,-->,21.161160,13.014583,40.516094
0,0.5,0.5,0,1,1,0.5,-->,10.719720,18.521826,21.285583
0,0.5,0.5,0,1,1,1,-->,0.000000,9.460618,-1.391523
0,0.5,0.5,0.5,0,0,0,-->,44.148941,21.051060,21.753263
0,0.5,0.5,0.5,0,0,0.5,-->,26.373314,24.083466,7.131313
0,0.5,0.5,0.5,0,0,1,-->,6.397080,36.716312,-12.111584
0,0.5,0.5,0.5,0,0.5,0,-->,33.379467,-1.700242,16.430387
0,0.5,0.5,0.5,0,0.5,0.5,-->,22.375986,8.027350,6.318582
0,0.5,0.5,0.5,0,0.5,1,-->,3.017362,24.027197,-12.402869
0,0.5,0.5,0.5,0,1,0,-->,22.737051,-35.103687,11.997651
0,0.5,0.5,0.5,0,1,0.5,-->,13.457071,-18.051182,3.554261
0,0.5,0.5,0.5,0,1,1,-->,0.907840,7.928662,-8.764199
0,0.5,0.5,0.5,0.5,0,0,-->,38.734806,35.985352,42.172363
0,0.5,0.5,0.5,0.5,0,0.5,-->,25.948446,33.038017,24.852955
0,0.5,0.5,0.5,0.5,0,1,-->,6.678815,37.522858,3.194466
0,0.5,0.5,0.5,0.5,0.5,0,-->,30.330490,13.944895,30.570005
0,0.5,0.5,0.5,0.5,0.5,0.5,-->,19.661846,16.963696,18.079210
0,0.5,0.5,0.5,0.5,0.5,1,-->,2.033416,24.590342,-3.548630
0,0.5,0.5,0.5,0.5,1,0,-->,18.787630,-16.618263,21.584492
0,0.5,0.5,0.5,0.5,1,0.5,-->,10.346922,-9.261045,10.074437
0,0.5,0.5,0.5,0.5,1,1,-->,0.327504,7.671993,-9.226938
0,0.5,0.5,0.5,1,0,0,-->,35.348660,45.548180,64.957916
0,0.5,0.5,0.5,1,0,0.5,-->,22.874971,41.750755,43.484509
0,0.5,0.5,0.5,1,0,1,-->,8.093973,33.517780,17.806004
0,0.5,0.5,0.5,1,0.5,0,-->,25.400988,28.459082,47.731998
0,0.5,0.5,0.5,1,0.5,0.5,-->,16.085239,28.248543,31.429367
0,0.5,0.5,0.5,1,0.5,1,-->,2.778414,24.773325,7.235352
0,0.5,0.5,0.5,1,1,0,-->,10.529305,8.839078,21.981646
0,0.5,0.5,0.5,1,1,0.5,-->,5.399787,7.462366,11.924391
0,0.5,0.5,0.5,1,1,1,-->,0.000000,6.227585,-1.127460
0,0.5,0.5,1,0,0,0,-->,3.845763,3.545476,5.337627
0,0.5,0.5,1,0,0,0.5,-->,0.000000,4.652448,-0.168643
0,0.5,0.5,1,0,0,1,-->,0.000000,6.149613,0.441361
0,0.5,0.5,1,0,0.5,0,-->,0.000000,-2.357242,1.841875
0,0.5,0.5,1,0,0.5,0.5,-->,1.289121,0.696723,-0.145099
0,0.5,0.5,1,0,0.5,1,-->,0.000000,5.275219,-1.933701
0,0.5,0.5,1,0,1,0,-->,0.000000,-3.890634,0.821447
0,0.5,0.5,1,0,1,0.5,-->,0.148928,-3.454798,-0.441772
0,0.5,0.5,1,0,1,1,-->,0.000000,3.556419,-1.430524
0,0.5,0.5,1,0.5,0,0,-->,5.937794,8.733018,12.876452
0,0.5,0.5,1,0.5,0,0.5,-->,2.300964,4.094531,2.787173
0,0.5,0.5,1,0.5,0,1,-->,0.000000,6.897914,-0.928351
0,0.5,0.5,1,0.5,0.5,0,-->,2.242676,0.442775,2.828120
0,0.5,0.5,1,0.5,0.5,0.5,-->,1.417065,1.035482,1.123668
0,0.5,0.5,1,0.5,0.5,1,-->,0.000000,4.547543,-1.640395
0,0.5,0.5,1,0.5,1,0,-->,0.238960,-4.449341,0.585055
0,0.5,0.5,1,0.5,1,0.5,-->,0.092448,-3.230982,-0.355821
0,0.5,0.5,1,0.5,1,1,-->,0.000000,2.865008,-1.505107
0,0.5,0.5,1,1,0,0,-->,8.700867,10.810503,19.302622
0,0.5,0.5,1,1,0,0.5,-->,3.815885,6.740162,10.089150
0,0.5,0.5,1,1,0,1,-->,0.000000,6.685080,1.079742
0,0.5,0.5,1,1,0.5,0,-->,3.642200,3.412604,9.737745
0,0.5,0.5,1,1,0.5,0.5,-->,2.437644,3.250551,7.275492
0,0.5,0.5,1,1,0.5,1,-->,0.000000,4.202278,0.119291
0,0.5,0.5,1,1,1,0,-->,0.000000,-2.683036,2.393925
0,0.5,0.5,1,1,1,0.5,-->,0.000000,-2.144149,1.398637
0,0.5,0.5,1,1,1,1,-->,0.000000,1.948589,-0.632719
0,0.5,1,0,0,0,0,-->,68.137703,34.543652,78.031784
0,0.5,1,0,0,0,0.5,-->,43.273785,34.015949,48.992558
0,0.5,1,0,0,0,1,-->,18.517498,41.745358,17.938131
0,0.5,1,0,0,0.5,0,-->,52.811028,1.240763,58.970291
0,0.5,1,0,0,0.5,0.5,-->,32.644714,9.799226,36.906029
0,0.5,1,0,0,0.5,1,-->,11.341982,26.566008,11.072993
0,0.5,1,0,0,1,0,-->,39.325718,-43.506329,42.333050
0,0.5,1,0,0,1,0.5,-->,23.601242,-24.640797,26.603474
0,0.5,1,0,0,1,1,-->,5.937238,4.302912,3.625864
0,0.5,1,0,0.5,0,0,-->,60.533375,55.404804,90.114494
0,0.5,1,0,0.5,0,0.5,-->,39.538376,47.520153,61.904175
0,0.5,1,0,0.5,0,1,-->,19.275227,46.373085,33.274837
0,0.5,1,0,0.5,0.5,0,-->,44.734653,26.634041,66.996811
0,0.5,1,0,0.5,0.5,0.5,-->,32.937351,23.846100,50.517399
0,0.5,1,0,0.5,0.5,1,-->,10.221877,31.309477,16.611820
0,0.5,1,0,0.5,1,0,-->,30.576193,-12.461089,47.447197
0,0.5,1,0,0.5,1,0.5,-->,21.174044,-8.883491,31.225897
0,0.5,1,0,0.5,1,1,-->,2.458199,1.078299,-1.179214
0,0.5,1,0,1,0,0,-->,56.058681,67.579048,100.679390
0,0.5,1,0,1,0,0.5,-->,37.880836,56.085712,69.416443
0,0.5,1,0,1,0,1,-->,21.101107,48.950108,41.080940
0,0.5,1,0,1,0.5,0,-->,40.167229,43.181286,73.071396
0,0.5,1,0,1,0.5,0.5,-->,28.909641,39.357460,53.400837
0,0.5,1,0,1,0.5,1,-->,10.199007,35.640926,19.989260
0,0.5,1,0,1,1,0,-->,24.577341,13.520655,46.602257
0,0.5,1,0,1,1,0.5,-->,16.776953,8.024250,30.998470
0,0.5,1,0,1,1,1,-->,1.006860,11.404913,1.315710
0,0.5,1,0.5,0,0,0,-->,42.378624,20.097479,54.699501
0,0.5,1,0.5,0,0,0.5,-->,25.778257,22.844473,34.639496
0,0.5,1,0.5,0,0,1,-->,7.798769,33.164673,10.688667
0,0.5,1,0.5,0,0.5,0,-->,32.589706,-1.938603,42.177624
0,0.5,1,0.5,0,0.5,0.5,-->,21.595562,6.754753,30.814941
0,0.5,1,0.5,0,0.5,1,-->,4.438538,17.667267,6.760559
0,0.5,1,0.5,0,1,0,-->,23.292360,-33.070553,31.847740
0,0.5,1,0.5,0,1,0.5,-->,13.964537,-17.595419,19.272512
0,0.5,1,0.5,0,1,1,-->,1.855818,1.687695,2.585632
0,0.5,1,0.5,0.5,0,0,-->,38.290890,35.461998,62.316967
0,0.5,1,0.5,0.5,0,0.5,-->,25.490591,32.636169,43.560398
0,0.5,1,0.5,0.5,0,1,-->,8.589540,32.818832,16.967464
0,0.5,1,0.5,0.5,0.5,0,-->,30.034607,13.460800,49.857998
0,0.5,1,0.5,0.5,0.5,0.5,-->,19.666225,15.869902,33.700066
0,0.5,1,0.5,0.5,0.5,1,-->,3.720233,21.855097,6.092980
0,0.5,1,0.5,0.5,1,0,-->,20.162958,-15.070227,33.507931
0,0.5,1,0.5,0.5,1,0.5,-->,15.107759,-17.078215,22.448929
0,0.5,1,0.5,0.5,1,1,-->,0.521732,1.513360,-1.101797
0,0.5,1,0.5,1,0,0,-->,35.728497,45.017757,66.369576
0,0.5,1,0.5,1,0,0.5,-->,23.843910,42.126385,45.604752
0,0.5,1,0.5,1,0,1,-->,10.859114,33.143639,23.068022
0,0.5,1,0.5,1,0.5,0,-->,26.717354,28.018351,50.355255
0,0.5,1,0.5,1,0.5,0.5,-->,21.019684,26.442499,39.736771
0,0.5,1,0.5,1,0.5,1,-->,4.409144,25.936064,10.296361
0,0.5,1,0.5,1,1,0,-->,14.115456,9.508162,28.291466
0,0.5,1,0.5,1,1,0.5,-->,9.274497,4.577379,18.572042
0,0.5,1,0.5,1,1,1,-->,0.030384,5.869993,-0.324921
0,0.5,1,1,0,0,0,-->,4.172723,-0.019478,8.229059
0,0.5,1,1,0,0,0.5,-->,0.000000,3.523179,-0.498191
0,0.5,1,1,0,0,1,-->,0.000000,7.238619,0.643283
0,0.5,1,1,0,0.5,0,-->,0.000000,-3.989413,1.932189
0,0.5,1,1,0,0.5,0.5,-->,1.221429,-1.680726,2.762368
0,0.5,1,1,0,0.5,1,-->,0.000000,4.593155,-0.153200
0,0.5,1,1,0,1,0,-->,0.000000,-6.167092,2.567302
0,0.5,1,1,0,1,0.5,-->,0.484612,-5.753438,2.365274
0,0.5,1,1,0,1,1,-->,0.000000,2.283275,-0.490288
0,0.5,1,1,0.5,0,0,-->,7.273362,7.829305,14.774117
0,0.5,1,1,0.5,0,0.5,-->,2.243400,2.004385,5.213328
0,0.5,1,1,0.5,0,1,-->,0.000000,6.399138,0.607656
0,0.5,1,1,0.5,0.5,0,-->,2.245800,-1.436407,5.371810
0,0.5,1,1,0.5,0.5,0.5,-->,1.414418,-0.830141,3.404731
0,0.5,1,1,0.5,0.5,1,-->,0.000000,4.006482,-0.280995
0,0.5,1,1,0.5,1,0,-->,0.533612,-6.359422,3.068084
0,0.5,1,1,0.5,1,0.5,-->,0.302148,-5.351336,1.966980
0,0.5,1,1,0.5,1,1,-->,0.000000,1.652630,-0.788237
0,0.5,1,1,1,0,0,-->,9.511724,12.017501,20.824881
0,0.5,1,1,1,0,0.5,-->,4.326688,8.399244,11.270993
0,0.5,1,1,1,0,1,-->,0.000000,7.198508,1.562423
0,0.5,1,1,1,0.5,0,-->,4.156985,5.106949,10.738885
0,0.5,1,1,1,0.5,0.5,-->,2.914379,4.725753,8.402163
0,0.5,1,1,1,0.5,1,-->,0.000000,4.474359,0.469571
0,0.5,1,1,1,1,0,-->,0.198371,-2.371111,3.119442
0,0.5,1,1,1,1,0.5,-->,0.016877,-2.101888,2.005251
0,0.5,1,1,1,1,1,-->,0.000000,-0.368877,-1.963225
0,1,0,0,0,0,0,-->,47.815056,80.389099,-2.307396
0,1,0,0,0,0,0.5,-->,30.408007,64.507446,-13.853334
0,1,0,0,0,0,1,-->,13.165935,55.867710,-29.299612
0,1,0,0,0,0.5,0,-->,31.648857,51.292301,-11.932112
0,1,0,0,0,0.5,0.5,-->,18.745678,44.858044,-19.302418
0,1,0,0,0,0.5,1,-->,5.784228,44.665775,-30.412086
0,1,0,0,0,1,0,-->,14.087033,9.758750,-26.217901
0,1,0,0,0,1,0.5,-->,6.383411,19.240229,-28.443602
0,1,0,0,0,1,1,-->,0.688544,23.260702,-30.346304
0,1,0,0,0.5,0,0,-->,46.750591,77.657669,36.064754
0,1,0,0,0.5,0,0.5,-->,30.233458,61.515469,19.998152
0,1,0,0,0.5,0,1,-->,14.683895,51.290112,3.460831
0,1,0,0,0.5,0.5,0,-->,30.380287,51.938690,20.133211
0,1,0,0,0.5,0.5,0.5,-->,18.266136,44.040997,9.004795
0,1,0,0,0.5,0.5,1,-->,6.205575,41.699108,-4.685232
0,1,0,0,0.5,1,0,-->,11.731946,18.867743,-0.879615
0,1,0,0,0.5,1,0.5,-->,4.311669,22.721071,-7.775477
0,1,0,0,0.5,1,1,-->,0.285989,20.132118,-9.223382
0,1,0,0,1,0,0,-->,46.132450,76.494156,79.186768
0,1,0,0,1,0,0.5,-->,30.358643,60.576553,52.573334
0,1,0,0,1,0,1,-->,16.274263,50.252918,30.042807
0,1,0,0,1,0.5,0,-->,29.951550,52.714230,52.058613
0,1,0,0,1,0.5,0.5,-->,18.765036,45.226078,34.068218
0,1,0,0,1,0.5,1,-->,7.513835,40.836735,15.490743
0,1,0,0,1,1,0,-->,11.620131,25.319067,21.968878
0,1,0,0,1,1,0.5,-->,5.220192,25.240837,10.322564
0,1,0,0,1,1,1,-->,0.715903,21.361868,3.793770
0,1,0,0.5,0,0,0,-->,28.673321,54.884674,-2.625895
0,1,0,0.5,0,0,0.5,-->,16.735502,46.425854,-10.538355
0,1,0,0.5,0,0,1,-->,4.411555,42.752716,-20.903362
0,1,0,0.5,0,0.5,0,-->,17.634750,35.570736,-9.154864
0,1,0,0.5,0,0.5,0.5,-->,8.800728,32.645939,-13.917346
0,1,0,0.5,0,0.5,1,-->,1.055481,28.049524,-18.719749
0,1,0,0.5,0,1,0,-->,4.690134,6.822405,-19.190254
0,1,0,0.5,0,1,0.5,-->,1.476620,11.280508,-17.932871
0,1,0,0.5,0,1,1,-->,0.000000,13.292683,-15.834092
0,1,0,0.5,0.5,0,0,-->,29.184881,51.639889,26.895359
0,1,0,0.5,0.5,0,0.5,-->,17.293713,43.445644,14.478355
0,1,0,0.5,0.5,0,1,-->,5.435944,39.781227,1.657281
0,1,0,0.5,0.5,0.5,0,-->,17.696001,34.454567,15.040239
0,1,0,0.5,0.5,0.5,0.5,-->,9.782762,35.229908,5.763417
0,1,0,0.5,0.5,0.5,1,-->,2.183527,26.354998,-3.082645
0,1,0,0.5,0.5,1,0,-->,3.688529,10.804013,-0.938648
0,1,0,0.5,0.5,1,0.5,-->,0.173860,12.878672,-6.719195
0,1,0,0.5,0.5,1,1,-->,0.000000,12.500030,-6.622969
0,1,0,0.5,1,0,0,-->,29.264112,50.794331,53.570599
0,1,0,0.5,1,0,0.5,-->,17.636255,42.629890,32.926762
0,1,0,0.5,1,0,1,-->,6.608447,38.987633,14.705340
0,1,0,0.5,1,0.5,0,-->,17.774929,35.192562,33.734386
0,1,0,0.5,1,0.5,0.5,-->,12.521927,29.617458,24.546371
0,1,0,0.5,1,0.5,1,-->,3.221482,29.629040,8.427529
0,1,0,0.5,1,1,0,-->,4.544755,13.898111,11.138912
0,1,0,0.5,1,1,0.5,-->,2.144126,13.507477,6.344193
0,1,0,0.5,1,1,1,-->,0.000000,11.062035,0.917643
0,1,0,1,0,0,0,-->,2.282987,14.373542,4.996116
0,1,0,1,0,0,0.5,-->,0.673799,11.706754,0.922355
0,1,0,1,0,0,1,-->,0.000000,11.498054,-1.326851
0,1,0,1,0,0.5,0,-->,0.000000,3.944302,0.227555
0,1,0,1,0,0.5,0.5,-->,0.000000,2.857986,-0.148108
0,1,0,1,0,0.5,1,-->,0.000000,5.037504,-0.233072
0,1,0,1,0,1,0,-->,0.000000,0.964973,-1.929962
0,1,0,1,0,1,0.5,-->,0.000000,3.355760,-1.201032
0,1,0,1,0,1,1,-->,0.000000,6.182884,-1.000000
0,1,0,1,0.5,0,0,-->,7.143433,12.367295,14.415218
0,1,0,1,0.5,0,0.5,-->,0.247188,6.797402,3.481882
0,1,0,1,0.5,0,1,-->,0.000000,7.296543,1.423290
0,1,0,1,0.5,0.5,0,-->,0.447225,1.347582,4.552315
0,1,0,1,0.5,0.5,0.5,-->,0.618026,5.805594,1.942919
0,1,0,1,0.5,0.5,1,-->,0.000000,5.062552,-1.064976
0,1,0,1,0.5,1,0,-->,0.000000,-0.451712,0.948224
0,1,0,1,0.5,1,0.5,-->,0.000000,0.566800,-1.358587
0,1,0,1,0.5,1,1,-->,0.000000,2.990052,-1.525466
0,1,0,1,1,0,0,-->,8.780837,12.684821,19.400778
0,1,0,1,1,0,0.5,-->,1.189316,7.857135,5.052125
0,1,0,1,1,0,1,-->,0.000000,11.859916,2.645912
0,1,0,1,1,0.5,0,-->,1.407638,2.150981,6.884068
0,1,0,1,1,0.5,0.5,-->,2.010703,5.787143,6.786428
0,1,0,1,1,0.5,1,-->,0.000000,5.499316,0.450283
0,1,0,1,1,1,0,-->,0.000000,-1.953308,3.801552
0,1,0,1,1,1,0.5,-->,0.000000,-1.052840,1.127027
0,1,0,1,1,1,1,-->,0.000000,-0.206230,-2.159531
0,1,0.5,0,0,0,0,-->,47.964634,76.525787,25.009140
0,1,0.5,0,0,0,0.5,-->,30.875498,61.308289,10.173946
0,1,0.5,0,0,0,1,-->,14.748624,51.786015,-5.800609
0,1,0.5,0,0,0.5,0,-->,31.935665,48.542389,11.279459
0,1,0.5,0,0,0.5,0.5,-->,19.221327,42.274139,0.930532
0,1,0.5,0,0,0.5,1,-->,6.595083,41.361031,-11.377425
0,1,0.5,0,0,1,0,-->,14.796451,8.763067,-5.740542
0,1,0.5,0,0,1,0.5,-->,6.252064,16.953314,-11.887085
0,1,0.5,0,0,1,1,-->,0.836483,19.899494,-15.008108
0,1,0.5,0,0.5,0,0,-->,46.887531,76.446602,54.826370
0,1,0.5,0,0.5,0,0.5,-->,30.893179,61.078369,36.390732
0,1,0.5,0,0.5,0,1,-->,16.061346,51.187382,18.415871
0,1,0.5,0,0.5,0.5,0,-->,30.918589,51.520119,35.909477
0,1,0.5,0,0.5,0.5,0.5,-->,20.478783,48.362915,19.398315
0,1,0.5,0,0.5,0.5,1,-->,6.661904,40.626759,1.203677
0,1,0.5,0,0.5,1,0,-->,12.896310,21.135902,12.910939
0,1,0.5,0,0.5,1,0.5,-->,4.086802,24.403849,-2.027427
0,1,0.5,0,0.5,1,1,-->,0.000000,13.427529,-18.347704
0,1,0.5,0,1,0,0,-->,46.276279,76.347351,82.575539
0,1,0.5,0,1,0,0.5,-->,31.253551,61.886345,56.949223
0,1,0.5,0,1,0,1,-->,18.066149,51.440022,34.884052
0,1,0.5,0,1,0.5,0,-->,30.687193,53.568195,56.064541
0,1,0.5,0,1,0.5,0.5,-->,21.862494,45.860779,40.306404
0,1,0.5,0,1,0.5,1,-->,5.933717,39.997574,10.974426
0,1,0.5,0,1,1,0,-->,13.692867,27.875631,27.040634
0,1,0.5,0,1,1,0.5,-->,3.498575,23.367538,6.488782
0,1,0.5,0,1,1,1,-->,0.000000,11.420523,-3.780607
0,1,0.5,0.5,0,0,0,-->,28.579334,50.870872,17.544411
0,1,0.5,0.5,0,0,0.5,-->,16.985746,43.559502,7.298610
0,1,0.5,0.5,0,0,1,-->,5.115253,40.497276,-4.289978
0,1,0.5,0.5,0,0.5,0,-->,17.808315,32.676338,8.146177
0,1,0.5,0.5,0,0.5,0.5,-->,10.847779,32.701008,2.874158
0,1,0.5,0.5,0,0.5,1,-->,2.474001,26.350971,-5.455907
0,1,0.5,0.5,0,1,0,-->,5.215836,5.259564,-4.176280
0,1,0.5,0.5,0,1,0.5,-->,0.422198,10.435205,-8.766685
0,1,0.5,0.5,0,1,1,-->,0.000000,12.033019,-7.670094
0,1,0.5,0.5,0.5,0,0,-->,29.170746,50.511654,39.447666
0,1,0.5,0.5,0.5,0,0.5,-->,17.407495,48.139641,23.326803
0,1,0.5,0.5,0.5,0,1,-->,6.706041,38.003654,8.096887
0,1,0.5,0.5,0.5,0.5,0,-->,18.758430,35.764496,24.949484
0,1,0.5,0.5,0.5,0.5,0.5,-->,10.340992,35.230244,12.759100
0,1,0.5,0.5,0.5,0.5,1,-->,1.653398,27.688225,-5.242943
0,1,0.5,0.5,0.5,1,0,-->,4.447554,13.441406,4.958331
0,1,0.5,0.5,0.5,1,0.5,-->,1.067597,10.061548,-6.132772
0,1,0.5,0.5,0.5,1,1,-->,0.000000,8.169979,-10.336274
0,1,0.5,0.5,1,0,0,-->,29.408464,50.967098,54.975487
0,1,0.5,0.5,1,0,0.5,-->,19.575272,43.903309,37.582302
0,1,0.5,0.5,1,0,1,-->,8.668251,35.833710,18.502674
0,1,0.5,0.5,1,0.5,0,-->,20.315924,34.100639,38.846462
0,1,0.5,0.5,1,0.5,0.5,-->,14.512925,33.557892,27.762686
0,1,0.5,0.5,1,0.5,1,-->,2.070637,27.086216,5.081384
0,1,0.5,0.5,1,1,0,-->,5.358366,17.168734,12.549442
0,1,0.5,0.5,1,1,0.5,-->,1.067070,11.330666,3.160116
0,1,0.5,0.5,1,1,1,-->,0.000000,6.073951,-3.106417
0,1,0.5,1,0,0,0,-->,3.071093,9.392131,6.877973
0,1,0.5,1,0,0,0.5,-->,0.000000,6.103043,1.223785
0,1,0.5,1,0,0,1,-->,0.000000,6.804135,0.420219
0,1,0.5,1,0,0.5,0,-->,0.000000,1.756957,1.346169
0,1,0.5,1,0,0.5,0.5,-->,0.246769,5.701024,1.134323
0,1,0.5,1,0,0.5,1,-->,0.000000,5.313019,-1.068449
0,1,0.5,1,0,1,0,-->,0.000000,-0.375063,-0.366810
0,1,0.5,1,0,1,0.5,-->,0.000000,0.804394,-1.472695
0,1,0.5,1,0,1,1,-->,0.000000,3.270842,-1.377738
0,1,0.5,1,0.5,0,0,-->,6.582721,11.642796,14.253302
0,1,0.5,1,0.5,0,0.5,-->,1.258401,8.820033,4.001877
0,1,0.5,1,0.5,0,1,-->,0.000000,7.085092,-0.210684
0,1,0.5,1,0.5,0.5,0,-->,1.093339,5.828910,3.521674
0,1,0.5,1,0.5,0.5,0.5,-->,0.627967,5.407741,2.075775
0,1,0.5,1,0.5,0.5,1,-->,0.000000,4.625651,-1.076969
0,1,0.5,1,0.5,1,0,-->,0.000000,0.156529,-0.754184
0,1,0.5,1,0.5,1,0.5,-->,0.000000,0.345759,-1.369735
0,1,0.5,1,0.5,1,1,-->,0.000000,2.511430,-1.589356
0,1,0.5,1,1,0,0,-->,8.881548,13.963787,19.686964
0,1,0.5,1,1,0,0.5,-->,3.499872,10.001207,9.653070
0,1,0.5,1,1,0,1,-->,0.000000,7.545141,1.270249
0,1,0.5,1,1,0.5,0,-->,3.182929,6.928039,9.125567
0,1,0.5,1,1,0.5,0.5,-->,2.126658,6.203919,6.964593
0,1,0.5,1,1,0.5,1,-->,0.000000,4.762520,0.194512
0,1,0.5,1,1,1,0,-->,0.000000,-0.930965,1.587836
0,1,0.5,1,1,1,0.5,-->,0.000000,-0.873064,0.692786
0,1,0.5,1,1,1,1,-->,0.000000,-0.206230,-2.154059
0,1,1,0,0,0,0,-->,47.837852,74.268478,57.046696
0,1,1,0,0,0,0.5,-->,31.357697,59.674301,37.632763
0,1,1,0,0,0,1,-->,16.681614,50.412449,19.466925
0,1,1,0,0,0.5,0,-->,32.286446,47.072807,37.350986
0,1,1,0,0,0.5,0.5,-->,20.138790,42.430992,24.974258
0,1,1,0,0,0.5,1,-->,8.239031,39.762474,8.601850
0,1,1,0,0,1,0,-->,16.260582,10.385215,16.136190
0,1,1,0,0,1,0.5,-->,8.002568,16.956598,6.096826
0,1,1,0,0,1,1,-->,1.620282,20.159536,-1.392998
0,1,1,0,0.5,0,0,-->,46.995605,75.670334,75.131767
0,1,1,0,0.5,0,0.5,-->,31.473980,62.427452,52.783127
0,1,1,0,0.5,0,1,-->,18.339481,51.714321,32.831676
0,1,1,0,0.5,0.5,0,-->,31.470182,52.163883,51.950150
0,1,1,0,0.5,0.5,0.5,-->,20.917669,45.847145,33.805412
0,1,1,0,0.5,0.5,1,-->,6.218570,40.019550,6.312457
0,1,1,0,0.5,1,0,-->,15.335279,23.377129,26.396400
0,1,1,0,0.5,1,0.5,-->,5.790101,15.911410,4.369120
0,1,1,0,0.5,1,1,-->,0.000000,11.391279,-6.986191
0,1,1,0,1,0,0,-->,46.477486,76.264587,84.474701
0,1,1,0,1,0,0.5,-->,31.975578,61.925087,58.719913
0,1,1,0,1,0,1,-->,19.961697,52.840473,39.054478
0,1,1,0,1,0.5,0,-->,31.386909,53.691917,57.617943
0,1,1,0,1,0.5,0.5,-->,24.673672,48.532234,45.147663
0,1,1,0,1,0.5,1,-->,7.527030,40.483189,14.903750
0,1,1,0,1,1,0,-->,15.926191,30.276266,31.599218
0,1,1,0,1,1,0.5,-->,5.470632,26.282467,10.803391
0,1,1,0,1,1,1,-->,0.000000,3.692604,-10.175094
0,1,1,0.5,0,0,0,-->,28.500816,48.147072,39.625877
0,1,1,0.5,0,0,0.5,-->,17.296783,42.674240,25.405565
0,1,1,0.5,0,0,1,-->,6.677671,39.949512,10.299370
0,1,1,0.5,0,0.5,0,-->,18.265755,30.851099,26.017910
0,1,1,0.5,0,0.5,0.5,-->,11.320305,30.849199,17.323643
0,1,1,0.5,0,0.5,1,-->,3.940629,26.036180,6.212142
0,1,1,0.5,0,1,0,-->,6.728689,5.967177,9.077006
0,1,1,0.5,0,1,0.5,-->,0.947398,11.407208,-0.066124
0,1,1,0.5,0,1,1,-->,0.000000,10.856982,-1.819502
0,1,1,0.5,0.5,0,0,-->,29.316479,49.597790,49.959938
0,1,1,0.5,0.5,0,0.5,-->,17.685778,47.566006,31.736832
0,1,1,0.5,0.5,0,1,-->,8.340763,36.918919,15.987164
0,1,1,0.5,0.5,0.5,0,-->,19.238607,34.748367,34.012970
0,1,1,0.5,0.5,0.5,0.5,-->,13.625474,32.826157,22.291040
0,1,1,0.5,0.5,0.5,1,-->,2.103769,27.264654,2.528058
0,1,1,0.5,0.5,1,0,-->,6.010029,14.616166,11.200788
0,1,1,0.5,0.5,1,0.5,-->,1.800216,8.157440,1.222888
0,1,1,0.5,0.5,1,1,-->,0.000000,6.187292,-4.756364
0,1,1,0.5,1,0,0,-->,29.585632,51.180645,55.881786
0,1,1,0.5,1,0,0.5,-->,20.332678,44.753033,39.640682
0,1,1,0.5,1,0,1,-->,11.484955,38.592667,23.671202
0,1,1,0.5,1,0.5,0,-->,21.321352,34.641609,41.210804
0,1,1,0.5,1,0.5,0.5,-->,15.902521,34.584385,30.595297
0,1,1,0.5,1,0.5,1,-->,3.307399,27.643114,7.380944
0,1,1,0.5,1,1,0,-->,8.497187,21.675884,18.055635
0,1,1,0.5,1,1,0.5,-->,2.153101,15.963058,4.953558
0,1,1,0.5,1,1,1,-->,0.000000,2.348023,-6.908265
0,1,1,1,0,0,0,-->,3.529358,5.272377,8.575873
0,1,1,1,0,0,0.5,-->,0.000000,4.756167,1.026424
0,1,1,1,0,0,1,-->,0.000000,11.614783,1.326851
0,1,1,1,0,0.5,0,-->,0.000000,-0.018475,1.608887
0,1,1,1,0,0.5,0.5,-->,0.523024,2.593186,2.361718
0,1,1,1,0,0.5,1,-->,0.000000,5.788799,-0.114184
0,1,1,1,0,1,0,-->,0.000000,-0.743187,1.011680
0,1,1,1,0,1,0.5,-->,0.000000,-0.184100,-0.235169
0,1,1,1,0,1,1,-->,0.000000,0.435799,-1.805450
0,1,1,1,0.5,0,0,-->,7.802542,10.919299,16.064999
0,1,1,1,0.5,0,0.5,-->,1.703636,5.886576,5.234667
0,1,1,1,0.5,0,1,-->,0.000000,7.521811,0.587517
0,1,1,1,0.5,0.5,0,-->,1.495717,3.308171,4.704155
0,1,1,1,0.5,0.5,0.5,-->,0.914343,3.015039,3.111934
0,1,1,1,0.5,0.5,1,-->,0.000000,4.801126,-0.365381
0,1,1,1,0.5,1,0,-->,0.000000,-0.396098,0.177564
0,1,1,1,0.5,1,0.5,-->,0.000000,-0.383377,-0.513041
0,1,1,1,0.5,1,1,-->,0.000000,0.137834,-1.960520
0,1,1,1,1,0,0,-->,9.106109,15.396888,20.178991
0,1,1,1,1,0,0.5,-->,3.832035,11.616669,10.330224
0,1,1,1,1,0,1,-->,0.000000,3.171211,-0.295723
0,1,1,1,1,0.5,0,-->,3.479270,9.010692,9.556951
0,1,1,1,1,0.5,0.5,-->,2.414826,7.903431,7.508952
0,1,1,1,1,0.5,1,-->,0.000000,1.490668,-1.145699
0,1,1,1,1,1,0,-->,0.000000,-0.019463,-0.801559
0,1,1,1,1,1,0.5,-->,0.000000,-0.102830,-1.388468
0,1,1,1,1,1,1,-->,0.000000,-0.206230,-2.147858
0.5,0,0,0,0,0,0,-->,77.486366,-20.658459,-26.958315
0.5,0,0,0,0,0,0.5,-->,47.400333,4.658816,-40.747986
0.5,0,0,0,0,0,1,-->,13.642088,51.448929,-67.696991
0.5,0,0,0,0,0.5,0,-->,64.486023,-47.443485,-17.807455
0.5,0,0,0,0,0.5,0.5,-->,39.314762,-16.986509,-30.983742
0.5,0,0,0,0,0.5,1,-->,11.601377,29.532328,-54.239826
0.5,0,0,0,0,1,0,-->,52.502396,-79.363365,-9.777270
0.5,0,0,0,0,1,0.5,-->,31.663883,-41.190376,-22.702314
0.5,0,0,0,0,1,1,-->,10.326004,7.783373,-42.370865
0.5,0,0,0,0.5,0,0,-->,58.210575,10.708364,8.186973
0.5,0,0,0,0.5,0,0.5,-->,35.476261,18.653526,-7.752800
0.5,0,0,0,0.5,0,1,-->,9.691336,39.600372,-32.008358
0.5,0,0,0,0.5,0.5,0,-->,45.959328,-13.039190,6.147151
0.5,0,0,0,0.5,0.5,0.5,-->,27.335447,1.113287,-7.064764
0.5,0,0,0,0.5,0.5,1,-->,5.970896,25.564671,-27.602320
0.5,0,0,0,0.5,1,0,-->,34.125320,-44.759396,4.101416
0.5,0,0,0,0.5,1,0.5,-->,19.181568,-21.558554,-7.262900
0.5,0,0,0,0.5,1,1,-->,2.985159,8.035452,-23.650137
0.5,0,0,0,1,0,0,-->,45.401585,36.891697,67.721664
0.5,0,0,0,1,0,0.5,-->,27.522636,32.327106,41.414852
0.5,0,0,0,1,0,1,-->,8.388617,34.317425,11.780288
0.5,0,0,0,1,0.5,0,-->,32.583309,17.916306,49.369465
0.5,0,0,0,1,0.5,0.5,-->,18.667788,19.405916,28.658131
0.5,0,0,0,1,0.5,1,-->,2.997862,23.251020,5.310238
0.5,0,0,0,1,1,0,-->,19.534325,-8.264587,30.762777
0.5,0,0,0,1,1,0.5,-->,8.457612,1.331745,13.730844
0.5,0,0,0,1,1,1,-->,0.000000,5.395019,-0.531462
0.5,0,0,0.5,0,0,0,-->,49.284164,-14.849550,-17.184364
0.5,0,0,0.5,0,0,0.5,-->,28.773380,4.060135,-27.745571
0.5,0,0,0.5,0,0,1,-->,5.068795,38.603535,-47.801861
0.5,0,0,0.5,0,0.5,0,-->,40.683064,-33.785339,-11.534472
0.5,0,0,0.5,0,0.5,0.5,-->,23.312119,-10.494102,-21.209641
0.5,0,0,0.5,0,0.5,1,-->,3.728281,22.886515,-38.111477
0.5,0,0,0.5,0,1,0,-->,32.372467,-57.550213,-6.770348
0.5,0,0,0.5,0,1,0.5,-->,17.741192,-27.269312,-16.199368
0.5,0,0,0.5,0,1,1,-->,2.900381,8.170770,-29.613642
0.5,0,0,0.5,0.5,0,0,-->,37.075443,5.749844,8.484406
0.5,0,0,0.5,0.5,0,0.5,-->,21.062641,13.399457,-3.457404
0.5,0,0,0.5,0.5,0,1,-->,2.932240,27.986494,-20.533916
0.5,0,0,0.5,0.5,0.5,0,-->,28.569868,-10.835407,6.704900
0.5,0,0,0.5,0.5,0.5,0.5,-->,19.357533,-0.226977,-2.434772
0.5,0,0,0.5,0.5,0.5,1,-->,1.619458,18.679592,-18.810686
0.5,0,0,0.5,0.5,1,0,-->,19.731737,-34.157181,4.524075
0.5,0,0,0.5,0.5,1,0.5,-->,12.350111,-20.236839,-2.075464
0.5,0,0,0.5,0.5,1,1,-->,0.844876,6.638342,-13.132422
0.5,0,0,0.5,1,0,0,-->,28.656219,22.741089,48.560036
0.5,0,0,0.5,1,0,0.5,-->,15.647790,22.689167,26.774891
0.5,0,0,0.5,1,0,1,-->,2.296182,23.287195,5.479937
0.5,0,0,0.5,1,0.5,0,-->,19.680490,9.532678,33.557240
0.5,0,0,0.5,1,0.5,0.5,-->,12.032875,14.237935,22.031864
0.5,0,0,0.5,1,0.5,1,-->,1.292115,11.533513,4.125628
0.5,0,0,0.5,1,1,0,-->,9.507385,-9.051304,18.277134
0.5,0,0,0.5,1,1,0.5,-->,2.083129,2.835294,5.283867
0.5,0,0,0.5,1,1,1,-->,0.000000,4.864704,-0.281801
0.5,0,0,1,0,0,0,-->,3.732847,-4.062993,-5.309470
0.5,0,0,1,0,0,0.5,-->,0.762641,4.866756,-6.052369
0.5,0,0,1,0,0,1,-->,0.000000,9.534016,-5.811940
0.5,0,0,1,0,0.5,0,-->,2.572206,-8.564558,-2.967002
0.5,0,0,1,0,0.5,0.5,-->,0.000000,0.702894,-3.736606
0.5,0,0,1,0,0.5,1,-->,0.000000,4.781245,-1.944401
0.5,0,0,1,0,1,0,-->,1.221611,-11.069407,-1.769345
0.5,0,0,1,0,1,0.5,-->,0.000000,1.693182,-2.471106
0.5,0,0,1,0,1,1,-->,0.000000,5.458339,-1.471593
0.5,0,0,1,0.5,0,0,-->,2.557214,-0.805260,6.063677
0.5,0,0,1,0.5,0,0.5,-->,0.000000,3.190347,0.325301
0.5,0,0,1,0.5,0,1,-->,0.000000,5.178354,0.629360
0.5,0,0,1,0.5,0.5,0,-->,0.104920,-3.980910,2.364013
0.5,0,0,1,0.5,0.5,0.5,-->,1.239404,-0.759336,-0.637986
0.5,0,0,1,0.5,0.5,1,-->,0.000000,4.517828,-2.381553
0.5,0,0,1,0.5,1,0,-->,0.000000,-3.843425,0.975506
0.5,0,0,1,0.5,1,0.5,-->,0.036801,-3.955466,-0.921633
0.5,0,0,1,0.5,1,1,-->,0.000000,3.034449,-1.582159
0.5,0,0,1,1,0,0,-->,4.687207,-1.035771,12.075486
0.5,0,0,1,1,0,0.5,-->,0.138269,1.466592,2.599098
0.5,0,0,1,1,0,1,-->,0.000000,5.423806,1.210015
0.5,0,0,1,1,0.5,0,-->,0.821514,-5.020663,4.626548
0.5,0,0,1,1,0.5,0.5,-->,1.789402,0.730085,6.016194
0.5,0,0,1,1,0.5,1,-->,0.000000,3.960231,0.227205
0.5,0,0,1,1,1,0,-->,0.000000,-4.686274,2.852727
0.5,0,0,1,1,1,0.5,-->,0.000000,-2.598741,1.596636
0.5,0,0,1,1,1,1,-->,0.000000,2.124869,-0.397694
0.5,0,0.5,0,0,0,0,-->,73.005890,-29.523785,17.180695
0.5,0,0.5,0,0,0,0.5,-->,44.964382,-6.908250,-4.904435
0.5,0,0.5,0,0,0,1,-->,13.742579,30.864824,-36.916866
0.5,0,0.5,0,0,0.5,0,-->,61.458420,-53.536968,16.994003
0.5,0,0.5,0,0,0.5,0.5,-->,37.509518,-25.972328,-2.326273
0.5,0,0.5,0,0,0.5,1,-->,11.382554,12.343038,-29.347483
0.5,0,0.5,0,0,1,0,-->,50.966526,-82.180870,16.700689
0.5,0,0.5,0,0,1,0.5,-->,30.680212,-48.425930,-0.269337
0.5,0,0.5,0,0,1,1,-->,9.435318,-7.376970,-23.059967
0.5,0,0.5,0,0.5,0,0,-->,56.960827,7.296893,37.773037
0.5,0,0.5,0,0.5,0,0.5,-->,35.144421,14.699625,17.146648
0.5,0,0.5,0,0.5,0,1,-->,11.287434,31.448595,-9.108849
0.5,0,0.5,0,0.5,0.5,0,-->,45.443108,-15.099895,30.322821
0.5,0,0.5,0,0.5,0.5,0.5,-->,33.975086,-4.641436,14.845750
0.5,0,0.5,0,0.5,0.5,1,-->,6.355866,22.928038,-15.329023
0.5,0,0.5,0,0.5,1,0,-->,34.743793,-44.479424,24.023275
0.5,0,0.5,0,0.5,1,0.5,-->,24.303673,-33.618614,12.017288
0.5,0,0.5,0,0.5,1,1,-->,3.319950,2.525033,-12.344595
0.5,0,0.5,0,1,0,0,-->,46.359505,34.708775,76.892487
0.5,0,0.5,0,1,0,0.5,-->,28.935511,31.194920,48.764416
0.5,0,0.5,0,1,0,1,-->,10.484418,33.283363,19.645895
0.5,0,0.5,0,1,0.5,0,-->,34.361202,15.846920,57.219540
0.5,0,0.5,0,1,0.5,0.5,-->,24.200769,18.748095,42.932976
0.5,0,0.5,0,1,0.5,1,-->,5.278220,21.030998,11.116098
0.5,0,0.5,0,1,1,0,-->,22.116631,-9.305116,39.260670
0.5,0,0.5,0,1,1,0.5,-->,10.686882,-0.805139,20.242054
0.5,0,0.5,0,1,1,1,-->,0.000000,5.016225,-0.665185
0.5,0,0.5,0.5,0,0,0,-->,46.558170,-21.161041,11.450253
0.5,0,0.5,0.5,0,0,0.5,-->,27.028423,-3.680589,-3.824001
0.5,0,0.5,0.5,0,0,1,-->,5.012278,24.484327,-25.866482
0.5,0,0.5,0.5,0,0.5,0,-->,38.757935,-38.418446,11.867242
0.5,0,0.5,0.5,0,0.5,0.5,-->,24.977640,-15.920872,-0.520808
0.5,0,0.5,0.5,0,0.5,1,-->,3.607850,13.211625,-21.079285
0.5,0,0.5,0.5,0,1,0,-->,31.472904,-60.403793,12.650273
0.5,0,0.5,0.5,0,1,0.5,-->,18.633322,-35.940781,1.438854
0.5,0,0.5,0.5,0,1,1,-->,2.621804,0.982787,-14.111995
0.5,0,0.5,0.5,0.5,0,0,-->,36.202938,3.660062,28.231216
0.5,0,0.5,0.5,0.5,0,0.5,-->,24.613390,8.966797,13.984458
0.5,0,0.5,0.5,0.5,0,1,-->,3.972983,25.343796,-8.386773
0.5,0,0.5,0.5,0.5,0.5,0,-->,31.413927,-13.805838,23.276085
0.5,0,0.5,0.5,0.5,0.5,0.5,-->,20.362808,-3.457032,11.939332
0.5,0,0.5,0.5,0.5,0.5,1,-->,1.509778,14.925698,-9.636230
0.5,0,0.5,0.5,0.5,1,0,-->,22.889027,-38.535904,19.912596
0.5,0,0.5,0.5,0.5,1,0.5,-->,13.295042,-25.110792,8.963119
0.5,0,0.5,0.5,0.5,1,1,-->,0.444595,3.220031,-11.097023
0.5,0,0.5,0.5,1,0,0,-->,29.353901,21.531673,52.734097
0.5,0,0.5,0.5,1,0,0.5,-->,18.702858,23.734795,34.844761
0.5,0,0.5,0.5,1,0,1,-->,4.332902,20.822329,10.302273
0.5,0,0.5,0.5,1,0.5,0,-->,23.097918,7.862637,42.220650
0.5,0,0.5,0.5,1,0.5,0.5,-->,13.907358,13.361459,26.985292
0.5,0,0.5,0.5,1,0.5,1,-->,1.411683,15.604767,4.801795
0.5,0,0.5,0.5,1,1,0,-->,11.236372,-9.839002,22.065210
0.5,0,0.5,0.5,1,1,0.5,-->,5.176097,-1.923396,11.652249
0.5,0,0.5,0.5,1,1,1,-->,0.000000,3.663938,-0.686426
0.5,0,0.5,1,0,0,0,-->,3.521121,-7.284832,1.160967
0.5,0,0.5,1,0,0,0.5,-->,0.000000,1.532739,-1.737221
0.5,0,0.5,1,0,0,1,-->,0.000000,5.312700,-0.710691
0.5,0,0.5,1,0,0.5,0,-->,2.063524,-10.608521,1.910545
0.5,0,0.5,1,0,0.5,0.5,-->,1.299444,-2.177709,-1.231484
0.5,0,0.5,1,0,0.5,1,-->,0.000000,4.441848,-2.498115
0.5,0,0.5,1,0,1,0,-->,1.451143,-12.889258,2.875769
0.5,0,0.5,1,0,1,0.5,-->,0.175297,-5.599661,-0.460057
0.5,0,0.5,1,0,1,1,-->,0.000000,2.926276,-1.585906
0.5,0,0.5,1,0.5,0,0,-->,1.733862,-0.863283,7.431770
0.5,0,0.5,1,0.5,0,0.5,-->,1.650419,0.103940,0.863808
0.5,0,0.5,1,0.5,0,1,-->,0.000000,4.902550,-1.803178
0.5,0,0.5,1,0.5,0.5,0,-->,1.918830,-3.173985,1.788207
0.5,0,0.5,1,0.5,0.5,0.5,-->,1.160761,-1.164972,0.205288
0.5,0,0.5,1,0.5,0.5,1,-->,0.000000,4.046730,-1.999521
0.5,0,0.5,1,0.5,1,0,-->,0.220082,-6.700226,0.740375
0.5,0,0.5,1,0.5,1,0.5,-->,0.076612,-4.480453,-0.338372
0.5,0,0.5,1,0.5,1,1,-->,0.000000,2.584887,-1.556032
0.5,0,0.5,1,1,0,0,-->,4.079471,-0.507075,11.348099
0.5,0,0.5,1,1,0,0.5,-->,2.714176,2.239714,7.971661
0.5,0,0.5,1,1,0,1,-->,0.000000,4.509362,0.601120
0.5,0,0.5,1,1,0.5,0,-->,2.837401,-0.274809,8.424429
0.5,0,0.5,1,1,0.5,0.5,-->,1.872431,1.047034,6.304234
0.5,0,0.5,1,1,0.5,1,-->,0.000000,3.615301,0.105034
0.5,0,0.5,1,1,1,0,-->,0.000000,-3.789674,2.398226
0.5,0,0.5,1,1,1,0.5,-->,0.000000,-2.541691,1.398363
0.5,0,0.5,1,1,1,1,-->,0.000000,1.744555,-0.579401
0.5,0,1,0,0,0,0,-->,69.804939,-33.108879,66.849594
0.5,0,1,0,0,0,0.5,-->,43.173286,-12.851153,36.103909
0.5,0,1,0,0,0,1,-->,15.286353,15.717043,-1.108712
0.5,0,1,0,0,0.5,0,-->,59.374691,-55.374680,54.909706
0.5,0,1,0,0,0.5,0.5,-->,36.481621,-30.622108,30.234453
0.5,0,1,0,0,0.5,1,-->,12.188963,-0.639764,-0.129110
0.5,0,1,0,0,1,0,-->,50.365288,-81.168839,44.266190
0.5,0,1,0,0,1,0.5,-->,30.930176,-52.959991,24.971172
0.5,0,1,0,0,1,1,-->,10.768968,-19.885283,0.356307
0.5,0,1,0,0.5,0,0,-->,56.083382,5.926367,72.382370
0.5,0,1,0,0.5,0,0.5,-->,35.200989,12.860752,46.439262
0.5,0,1,0,0.5,0,1,-->,13.212247,26.045162,16.147850
0.5,0,1,0,0.5,0.5,0,-->,45.429424,-15.692239,57.693771
0.5,0,1,0,0.5,0.5,0.5,-->,33.089188,-7.086643,43.883762
0.5,0,1,0,0.5,0.5,1,-->,8.127692,12.628995,8.925136
0.5,0,1,0,0.5,1,0,-->,36.117619,-44.301723,45.610405
0.5,0,1,0,0.5,1,0.5,-->,24.839565,-33.799454,31.016314
0.5,0,1,0,0.5,1,1,-->,2.681427,-5.886515,-0.019052
0.5,0,1,0,1,0,0,-->,47.429905,32.400852,83.037910
0.5,0,1,0,1,0,0.5,-->,30.758751,30.480087,55.476681
0.5,0,1,0,1,0,1,-->,13.556215,32.038597,26.452608
0.5,0,1,0,1,0.5,0,-->,36.418568,14.176849,64.304916
0.5,0,1,0,1,0.5,0.5,-->,25.705534,17.167789,47.277145
0.5,0,1,0,1,0.5,1,-->,7.279491,29.100548,16.518101
0.5,0,1,0,1,1,0,-->,25.713406,-10.054603,46.464355
0.5,0,1,0,1,1,0.5,-->,16.106531,-1.505646,31.336744
0.5,0,1,0,1,1,1,-->,0.640997,6.921898,2.538940
0.5,0,1,0.5,0,0,0,-->,44.048599,-24.347223,46.359222
0.5,0,1,0.5,0,0,0.5,-->,25.643530,-8.341594,25.184448
0.5,0,1,0.5,0,0,1,-->,5.746676,14.351366,-0.595504
0.5,0,1,0.5,0,0.5,0,-->,37.257515,-40.611629,38.911121
0.5,0,1,0.5,0,0.5,0.5,-->,23.661694,-20.105518,25.764114
0.5,0,1,0.5,0,0.5,1,-->,4.629849,1.979093,1.627582
0.5,0,1,0.5,0,1,0,-->,31.234201,-60.346592,32.929070
0.5,0,1,0.5,0,1,0.5,-->,18.673307,-37.692116,19.545246
0.5,0,1,0.5,0,1,1,-->,3.369008,-7.497393,1.144613
0.5,0,1,0.5,0.5,0,0,-->,35.528172,2.596743,51.523952
0.5,0,1,0.5,0.5,0,0.5,-->,23.897495,6.722136,36.361942
0.5,0,1,0.5,0.5,0,1,-->,5.615094,17.589096,8.909344
0.5,0,1,0.5,0.5,0.5,0,-->,30.850416,-15.681888,45.736572
0.5,0,1,0.5,0.5,0.5,0.5,-->,19.996273,-5.949804,30.981052
0.5,0,1,0.5,0.5,0.5,1,-->,2.777905,11.309067,3.362569
0.5,0,1,0.5,0.5,1,0,-->,23.876015,-38.076359,34.632336
0.5,0,1,0.5,0.5,1,0.5,-->,16.963440,-30.471926,23.571693
0.5,0,1,0.5,0.5,1,1,-->,0.487391,-2.029167,-0.415690
0.5,0,1,0.5,1,0,0,-->,30.227257,20.348265,56.202702
0.5,0,1,0.5,1,0,0.5,-->,20.095417,23.283531,38.324722
0.5,0,1,0.5,1,0,1,-->,7.395332,21.636534,16.414276
0.5,0,1,0.5,1,0.5,0,-->,24.739655,6.723169,46.064800
0.5,0,1,0.5,1,0.5,0.5,-->,19.062988,15.322153,36.622490
0.5,0,1,0.5,1,0.5,1,-->,3.013168,19.773903,8.770393
0.5,0,1,0.5,1,1,0,-->,14.826393,-9.012995,28.758703
0.5,0,1,0.5,1,1,0.5,-->,8.797799,-2.507166,18.691721
0.5,0,1,0.5,1,1,1,-->,0.000000,3.541129,0.540019
0.5,0,1,1,0,0,0,-->,3.630643,-9.989656,5.990721
0.5,0,1,1,0,0,0.5,-->,0.000000,-0.051426,-0.996421
0.5,0,1,1,0,0,1,-->,0.000000,5.146832,0.009720
0.5,0,1,1,0,0.5,0,-->,3.054081,-13.003616,5.428989
0.5,0,1,1,0,0.5,0.5,-->,1.232000,-4.486351,2.593551
0.5,0,1,1,0,0.5,1,-->,0.000000,3.577363,-0.295237
0.5,0,1,1,0,1,0,-->,2.466507,-15.800031,6.083891
0.5,0,1,1,0,1,0.5,-->,0.720287,-8.200203,2.974412
0.5,0,1,1,0,1,1,-->,0.000000,1.580434,-0.495501
0.5,0,1,1,0.5,0,0,-->,2.111298,-1.461736,7.170512
0.5,0,1,1,0.5,0,0.5,-->,1.549657,-1.830787,3.772035
0.5,0,1,1,0.5,0,1,-->,0.000000,4.218815,0.012030
0.5,0,1,1,0.5,0.5,0,-->,1.881679,-4.920820,4.853609
0.5,0,1,1,0.5,0.5,0.5,-->,1.135068,-2.948171,2.984960
0.5,0,1,1,0.5,0.5,1,-->,0.000000,3.357112,-0.383301
0.5,0,1,1,0.5,1,0,-->,0.734095,-8.798184,3.649210
0.5,0,1,1,0.5,1,0.5,-->,0.380654,-6.702392,2.349999
0.5,0,1,1,0.5,1,1,-->,0.000000,1.369484,-0.736256
0.5,0,1,1,1,0,0,-->,4.637277,2.209695,13.158549
0.5,0,1,1,1,0,0.5,-->,3.026937,3.809182,9.093999
0.5,0,1,1,1,0,1,-->,0.000000,4.856770,0.925820
0.5,0,1,1,1,0.5,0,-->,3.242318,1.490440,9.433092
0.5,0,1,1,1,0.5,0.5,-->,2.243879,2.625499,7.439537
0.5,0,1,1,1,0.5,1,-->,0.000000,3.811370,0.372464
0.5,0,1,1,1,1,0,-->,0.164095,-3.415492,3.090625
0.5,0,1,1,1,1,0.5,-->,0.007946,-2.376757,1.981844
0.5,0,1,1,1,1,1,-->,0.000000,-0.470255,-1.856740
0.5,0.5,0,0,0,0,0,-->,55.129356,13.018230,-28.240009
0.5,0.5,0,0,0,0,0.5,-->,33.768688,24.588839,-37.473324
0.5,0.5,0,0,0,0,1,-->,9.845132,51.848225,-56.350597
0.5,0.5,0,0,0,0.5,0,-->,44.494804,-13.914907,-22.674112
0.5,0.5,0,0,0,0.5,0.5,-->,26.900578,4.441696,-30.880032
0.5,0.5,0,0,0,0.5,1,-->,6.755030,35.363525,-47.769920
0.5,0.5,0,0,0,1,0,-->,34.246979,-47.983276,-18.632824
0.5,0.5,0,0,0,1,0.5,-->,19.888765,-19.282978,-26.489298
0.5,0.5,0,0,0,1,1,-->,4.314320,16.462608,-40.513458
0.5,0.5,0,0,0.5,0,0,-->,44.037266,30.330997,6.158352
0.5,0.5,0,0,0.5,0,0.5,-->,27.113771,30.936594,-5.717074
0.5,0.5,0,0,0.5,0,1,-->,7.856010,41.992954,-24.056828
0.5,0.5,0,0,0.5,0.5,0,-->,33.078323,7.539852,2.185058
0.5,0.5,0,0,0.5,0.5,0.5,-->,25.685511,14.064451,-6.843410
0.5,0.5,0,0,0.5,0.5,1,-->,3.593285,33.267025,-27.948208
0.5,0.5,0,0,0.5,1,0,-->,21.859594,-24.821894,-2.980150
0.5,0.5,0,0,0.5,1,0.5,-->,15.631646,-15.043453,-8.851048
0.5,0.5,0,0,0.5,1,1,-->,1.259924,12.195803,-23.004566
0.5,0.5,0,0,1,0,0,-->,36.892040,44.718502,56.556538
0.5,0.5,0,0,1,0,0.5,-->,22.773495,38.334480,34.813770
0.5,0.5,0,0,1,0,1,-->,7.389972,38.053688,11.566359
0.5,0.5,0,0,1,0.5,0,-->,25.305969,26.487337,38.926517
0.5,0.5,0,0,1,0.5,0.5,-->,18.099489,29.046181,29.396688
0.5,0.5,0,0,1,0.5,1,-->,3.254525,24.761591,4.831798
0.5,0.5,0,0,1,1,0,-->,11.779140,1.713001,19.250368
0.5,0.5,0,0,1,1,0.5,-->,4.077459,11.393787,5.811644
0.5,0.5,0,0,1,1,1,-->,0.000000,7.909389,-3.160245
0.5,0.5,0,0.5,0,0,0,-->,35.249676,7.970126,-18.390215
0.5,0.5,0,0.5,0,0,0.5,-->,20.081184,17.762854,-25.187815
0.5,0.5,0,0.5,0,0,1,-->,2.916409,36.739628,-38.804211
0.5,0.5,0,0.5,0,0.5,0,-->,27.424801,-10.493358,-15.028019
0.5,0.5,0,0.5,0,0.5,0.5,-->,17.559944,3.644863,-20.184509
0.5,0.5,0,0.5,0,0.5,1,-->,1.595185,22.501381,-31.714991
0.5,0.5,0,0.5,0,1,0,-->,19.176075,-35.021172,-13.634018
0.5,0.5,0,0.5,0,1,0.5,-->,10.737663,-16.808140,-17.397503
0.5,0.5,0,0.5,0,1,1,-->,0.779377,9.535824,-23.297865
0.5,0.5,0,0.5,0.5,0,0,-->,28.155449,18.983288,7.750725
0.5,0.5,0,0.5,0.5,0,0.5,-->,18.407980,22.386871,-2.562263
0.5,0.5,0,0.5,0.5,0,1,-->,2.320902,29.947887,-16.854490
0.5,0.5,0,0.5,0.5,0.5,0,-->,23.011812,3.563487,3.798831
0.5,0.5,0,0.5,0.5,0.5,0.5,-->,14.349237,10.478052,-3.797189
0.5,0.5,0,0.5,0.5,0.5,1,-->,0.652978,18.987255,-16.624754
0.5,0.5,0,0.5,0.5,1,0,-->,13.941368,-22.146709,0.950808
0.5,0.5,0,0.5,0.5,1,0.5,-->,7.177700,-10.948763,-5.627354
0.5,0.5,0,0.5,0.5,1,1,-->,0.186988,7.351625,-16.006588
0.5,0.5,0,0.5,1,0,0,-->,23.163530,28.500622,40.385761
0.5,0.5,0,0.5,1,0,0.5,-->,14.066829,30.060696,25.577074
0.5,0.5,0,0.5,1,0,1,-->,2.913750,21.311909,6.814471
0.5,0.5,0,0.5,1,0.5,0,-->,16.786913,17.479555,30.125248
0.5,0.5,0,0.5,1,0.5,0.5,-->,9.678645,20.585691,18.300465
0.5,0.5,0,0.5,1,0.5,1,-->,0.877260,17.504559,2.272833
0.5,0.5,0,0.5,1,1,0,-->,3.994409,2.203768,8.793024
0.5,0.5,0,0.5,1,1,0.5,-->,2.508200,3.882609,5.404002
0.5,0.5,0,0.5,1,1,1,-->,0.000000,5.432698,-2.209186
0.5,0.5,0,1,0,0,0,-->,1.862688,4.039571,-2.103461
0.5,0.5,0,1,0,0,0.5,-->,0.307354,6.389836,-3.421169
0.5,0.5,0,1,0,0,1,-->,0.000000,8.867561,-3.337566
0.5,0.5,0,1,0,0.5,0,-->,0.000000,-1.671812,-2.911176
0.5,0.5,0,1,0,0.5,0.5,-->,0.852590,0.808787,-2.740390
0.5,0.5,0,1,0,0.5,1,-->,0.000000,5.530079,-3.453437
0.5,0.5,0,1,0,1,0,-->,0.000000,-1.998845,-2.666826
0.5,0.5,0,1,0,1,0.5,-->,0.037766,-2.918768,-2.212181
0.5,0.5,0,1,0,1,1,-->,0.000000,3.592776,-2.269983
0.5,0.5,0,1,0.5,0,0,-->,0.839800,3.222265,5.535277
0.5,0.5,0,1,0.5,0,0.5,-->,1.303372,2.207172,0.107314
0.5,0.5,0,1,0.5,0,1,-->,0.000000,5.618888,-2.284263
0.5,0.5,0,1,0.5,0.5,0,-->,1.439993,-0.138746,0.490744
0.5,0.5,0,1,0.5,0.5,0.5,-->,0.892045,0.630865,-0.600907
0.5,0.5,0,1,0.5,0.5,1,-->,0.000000,4.523726,-2.395255
0.5,0.5,0,1,0.5,1,0,-->,0.069889,-4.057453,-0.764511
0.5,0.5,0,1,0.5,1,0.5,-->,0.021998,-2.968135,-1.282530
0.5,0.5,0,1,0.5,1,1,-->,0.000000,2.793222,-1.806727
0.5,0.5,0,1,1,0,0,-->,3.301790,1.152014,10.034554
0.5,0.5,0,1,1,0,0.5,-->,2.501225,3.045559,7.467975
0.5,0.5,0,1,1,0,1,-->,0.000000,4.682329,0.358860
0.5,0.5,0,1,1,0.5,0,-->,2.533778,1.280645,7.656415
0.5,0.5,0,1,1,0.5,0.5,-->,1.724359,1.635014,5.916275
0.5,0.5,0,1,1,0.5,1,-->,0.000000,3.718108,-0.079971
0.5,0.5,0,1,1,1,0,-->,0.000000,-2.702529,1.875921
0.5,0.5,0,1,1,1,0.5,-->,0.000000,-2.155974,1.164265
0.5,0.5,0,1,1,1,1,-->,0.000000,1.845295,-0.716680
0.5,0.5,0.5,0,0,0,0,-->,52.496330,5.639635,6.233938
0.5,0.5,0.5,0,0,0,0.5,-->,32.322968,16.205971,-8.500653
0.5,0.5,0.5,0,0,0,1,-->,9.978677,38.195770,-30.829342
0.5,0.5,0.5,0,0,0.5,0,-->,42.464966,-19.273394,5.091293
0.5,0.5,0.5,0,0,0.5,0.5,-->,31.244707,-0.471152,-6.294461
0.5,0.5,0.5,0,0,0.5,1,-->,6.081105,27.407877,-30.465534
0.5,0.5,0.5,0,0,1,0,-->,33.163960,-52.315022,3.468416
0.5,0.5,0.5,0,0,1,0.5,-->,21.998842,-30.169058,-6.269831
0.5,0.5,0.5,0,0,1,1,-->,3.283767,6.922355,-24.750261
0.5,0.5,0.5,0,0.5,0,0,-->,43.273739,28.000872,29.808846
0.5,0.5,0.5,0,0.5,0,0.5,-->,32.314613,27.156391,13.006436
0.5,0.5,0.5,0,0.5,0,1,-->,7.593252,40.424366,-13.235442
0.5,0.5,0.5,0,0.5,0.5,0,-->,38.585957,4.086475,21.169159
0.5,0.5,0.5,0,0.5,0.5,0.5,-->,27.214569,11.378710,9.190134
0.5,0.5,0.5,0,0.5,0.5,1,-->,3.969867,29.469296,-16.550217
0.5,0.5,0.5,0,0.5,1,0,-->,26.848814,-30.384674,15.113529
0.5,0.5,0.5,0,0.5,1,0.5,-->,17.205318,-19.077993,4.017350
0.5,0.5,0.5,0,0.5,1,1,-->,1.105166,8.287469,-25.424429
0.5,0.5,0.5,0,1,0,0,-->,37.493626,43.541264,63.642746
0.5,0.5,0.5,0,1,0,0.5,-->,25.814211,41.885616,45.113892
0.5,0.5,0.5,0,1,0,1,-->,7.723960,35.178062,14.442455
0.5,0.5,0.5,0,1,0.5,0,-->,29.806805,26.310450,51.143681
0.5,0.5,0.5,0,1,0.5,0.5,-->,20.229309,29.158548,35.331440
0.5,0.5,0.5,0,1,0.5,1,-->,3.893244,31.295021,6.739523
0.5,0.5,0.5,0,1,1,0,-->,14.515914,2.784452,25.317442
0.5,0.5,0.5,0,1,1,0.5,-->,9.462879,5.994475,16.345377
0.5,0.5,0.5,0,1,1,1,-->,0.000000,7.392435,-3.327352
0.5,0.5,0.5,0.5,0,0,0,-->,33.318905,2.429597,5.531842
0.5,0.5,0.5,0.5,0,0,0.5,-->,21.834330,12.523847,-3.578914
0.5,0.5,0.5,0.5,0,0,1,-->,2.903280,28.507963,-21.013145
0.5,0.5,0.5,0.5,0,0.5,0,-->,28.256258,-11.777293,5.329693
0.5,0.5,0.5,0.5,0,0.5,0.5,-->,17.748625,0.034738,-3.243734
0.5,0.5,0.5,0.5,0,0.5,1,-->,1.323722,16.579597,-18.254965
0.5,0.5,0.5,0.5,0,1,0,-->,19.961700,-37.821960,4.414383
0.5,0.5,0.5,0.5,0,1,0.5,-->,10.869280,-21.126228,-3.437584
0.5,0.5,0.5,0.5,0,1,1,-->,0.560555,5.427271,-12.923274
0.5,0.5,0.5,0.5,0.5,0,0,-->,30.016193,15.886393,22.617321
0.5,0.5,0.5,0.5,0.5,0,0.5,-->,18.923567,20.003290,11.001877
0.5,0.5,0.5,0.5,0.5,0,1,-->,2.073527,26.106476,-7.650426
0.5,0.5,0.5,0.5,0.5,0.5,0,-->,23.854151,2.070836,17.584066
0.5,0.5,0.5,0.5,0.5,0.5,0.5,-->,15.564208,8.265233,7.662524
0.5,0.5,0.5,0.5,0.5,0.5,1,-->,1.181930,21.105869,-16.273409
0.5,0.5,0.5,0.5,0.5,1,0,-->,15.012065,-23.234598,12.065971
0.5,0.5,0.5,0.5,0.5,1,0.5,-->,12.286225,-20.559906,1.058464
0.5,0.5,0.5,0.5,0.5,1,1,-->,0.143306,5.729371,-15.307813
0.5,0.5,0.5,0.5,1,0,0,-->,24.743547,29.604401,45.345833
0.5,0.5,0.5,0.5,1,0,0.5,-->,14.777328,30.196516,28.312897
0.5,0.5,0.5,0.5,1,0,1,-->,2.814336,20.233801,7.248332
0.5,0.5,0.5,0.5,1,0.5,0,-->,18.093544,17.945807,33.601467
0.5,0.5,0.5,0.5,1,0.5,0.5,-->,15.496206,21.629936,28.400307
0.5,0.5,0.5,0.5,1,0.5,1,-->,1.169627,19.354649,2.968560
0.5,0.5,0.5,0.5,1,1,0,-->,5.347511,2.927705,11.204132
0.5,0.5,0.5,0.5,1,1,0.5,-->,4.147521,2.541646,8.667677
0.5,0.5,0.5,0.5,1,1,1,-->,0.000000,5.070592,-2.323514
0.5,0.5,0.5,1,0,0,0,-->,1.547523,0.223056,2.210729
0.5,0.5,0.5,1,0,0,0.5,-->,1.081115,1.119291,-1.133244
0.5,0.5,0.5,1,0,0,1,-->,0.000000,5.498571,-2.666454
0.5,0.5,0.5,1,0,0.5,0,-->,1.402966,-1.767650,-0.491048
0.5,0.5,0.5,1,0,0.5,0.5,-->,0.816115,-0.366293,-1.257998
0.5,0.5,0.5,1,0,0.5,1,-->,0.000000,4.458080,-2.533088
0.5,0.5,0.5,1,0,1,0,-->,0.192844,-5.563206,-0.621221
0.5,0.5,0.5,1,0,1,0.5,-->,0.072650,-3.884889,-1.100854
0.5,0.5,0.5,1,0,1,1,-->,0.000000,2.741940,-1.836358
0.5,0.5,0.5,1,0.5,0,0,-->,2.103185,0.666249,2.259154
0.5,0.5,0.5,1,0.5,0,0.5,-->,1.178069,1.166150,0.469374
0.5,0.5,0.5,1,0.5,0,1,-->,0.000000,4.601804,-2.141026
0.5,0.5,0.5,1,0.5,0.5,0,-->,1.336824,-0.492324,0.834397
0.5,0.5,0.5,1,0.5,0.5,0.5,-->,0.854563,0.147105,-0.038796
0.5,0.5,0.5,1,0.5,0.5,1,-->,0.000000,4.070501,-2.195294
0.5,0.5,0.5,1,0.5,1,0,-->,0.089825,-4.362082,-0.518429
0.5,0.5,0.5,1,0.5,1,0.5,-->,0.044193,-3.469845,-0.884623
0.5,0.5,0.5,1,0.5,1,1,-->,0.000000,2.419338,-1.807631
0.5,0.5,0.5,1,1,0,0,-->,3.716385,2.838303,9.832451
0.5,0.5,0.5,1,1,0,0.5,-->,2.407478,2.752200,7.246629
0.5,0.5,0.5,1,1,0,1,-->,0.000000,3.934529,0.045453
0.5,0.5,0.5,1,1,0.5,0,-->,2.472955,1.753583,7.396204
0.5,0.5,0.5,1,1,0.5,0.5,-->,1.763047,1.878916,6.042839
0.5,0.5,0.5,1,1,0.5,1,-->,0.000000,3.441756,-0.181866
0.5,0.5,0.5,1,1,1,0,-->,0.000000,-2.435867,1.412863
0.5,0.5,0.5,1,1,1,0.5,-->,0.000000,-2.092000,0.984884
0.5,0.5,0.5,1,1,1,1,-->,0.000000,1.633206,-0.818020
0.5,0.5,1,0,0,0,0,-->,50.234573,2.390155,46.071274
0.5,0.5,1,0,0,0,0.5,-->,31.448645,11.874492,24.532524
0.5,0.5,1,0,0,0,1,-->,10.953159,29.086428,-1.925364
0.5,0.5,1,0,0,0.5,0,-->,41.210537,-21.147346,35.929543
0.5,0.5,1,0,0,0.5,0.5,-->,29.647324,-3.958096,25.399137
0.5,0.5,1,0,0,0.5,1,-->,7.411708,14.737775,-2.550742
0.5,0.5,1,0,0,1,0,-->,33.063786,-52.714844,27.204815
0.5,0.5,1,0,0,1,0.5,-->,21.590054,-31.451004,15.026423
0.5,0.5,1,0,0,1,1,-->,3.874460,-2.782644,-5.367341
0.5,0.5,1,0,0.5,0,0,-->,42.806339,26.718714,57.480419
0.5,0.5,1,0,0.5,0,0.5,-->,31.282663,25.247236,42.132771
0.5,0.5,1,0,0.5,0,1,-->,9.470043,31.765482,10.693683
0.5,0.5,1,0,0.5,0.5,0,-->,37.733593,2.653968,49.852634
0.5,0.5,1,0,0.5,0.5,0.5,-->,26.845623,9.163733,35.239697
0.5,0.5,1,0,0.5,0.5,1,-->,6.654944,24.422634,2.198646
0.5,0.5,1,0,0.5,1,0,-->,27.489546,-28.869688,33.889370
0.5,0.5,1,0,0.5,1,0.5,-->,25.739729,-32.518436,27.088404
0.5,0.5,1,0,0.5,1,1,-->,1.803562,-0.410629,-4.361809
0.5,0.5,1,0,1,0,0,-->,38.299992,41.871845,69.003029
0.5,0.5,1,0,1,0,0.5,-->,26.795567,41.300919,48.668129
0.5,0.5,1,0,1,0,1,-->,10.452604,35.311451,20.395048
0.5,0.5,1,0,1,0.5,0,-->,31.175079,25.330709,55.286587
0.5,0.5,1,0,1,0.5,0.5,-->,29.974667,30.985460,53.486195
0.5,0.5,1,0,1,0.5,1,-->,6.771693,32.928036,13.390079
0.5,0.5,1,0,1,1,0,-->,18.601986,3.036789,32.793602
0.5,0.5,1,0,1,1,0.5,-->,14.251204,5.177336,25.652294
0.5,0.5,1,0,1,1,1,-->,0.470005,9.078587,-1.096705
0.5,0.5,1,0.5,0,0,0,-->,31.682291,-0.524281,34.538891
0.5,0.5,1,0.5,0,0,0.5,-->,20.612900,8.902854,23.024948
0.5,0.5,1,0.5,0,0,1,-->,4.046061,18.741940,1.413319
0.5,0.5,1,0.5,0,0.5,0,-->,27.026537,-14.173939,31.023109
0.5,0.5,1,0.5,0,0.5,0.5,-->,16.727777,-3.325445,19.879431
0.5,0.5,1,0.5,0,0.5,1,-->,2.196320,8.175162,0.064695
0.5,0.5,1,0.5,0,1,0,-->,20.176409,-37.614986,22.136435
0.5,0.5,1,0.5,0,1,0.5,-->,11.334455,-22.415430,11.458703
0.5,0.5,1,0.5,0,1,1,-->,0.834862,-0.301575,-2.900468
0.5,0.5,1,0.5,0.5,0,0,-->,29.168970,14.012105,44.891666
0.5,0.5,1,0.5,0.5,0,0.5,-->,18.291782,17.985521,29.285887
0.5,0.5,1,0.5,0.5,0,1,-->,3.363746,19.422665,5.600056
0.5,0.5,1,0.5,0.5,0.5,0,-->,23.419138,0.493130,36.421356
0.5,0.5,1,0.5,0.5,0.5,0.5,-->,21.137396,3.205287,28.796368
0.5,0.5,1,0.5,0.5,0.5,1,-->,2.246753,16.090168,0.729477
0.5,0.5,1,0.5,0.5,1,0,-->,16.251818,-22.508434,23.203615
0.5,0.5,1,0.5,0.5,1,0.5,-->,15.725754,-25.651800,19.525488
0.5,0.5,1,0.5,0.5,1,1,-->,0.368920,0.629421,-2.718883
0.5,0.5,1,0.5,1,0,0,-->,25.751186,29.236717,48.106674
0.5,0.5,1,0.5,1,0,0.5,-->,16.295504,29.821415,31.483173
0.5,0.5,1,0.5,1,0,1,-->,4.316683,24.536415,9.936094
0.5,0.5,1,0.5,1,0.5,0,-->,19.866528,17.668785,37.043930
0.5,0.5,1,0.5,1,0.5,0.5,-->,19.566811,21.620087,36.468552
0.5,0.5,1,0.5,1,0.5,1,-->,2.678684,21.761789,6.776822
0.5,0.5,1,0.5,1,1,0,-->,11.097906,1.374667,20.346077
0.5,0.5,1,0.5,1,1,0.5,-->,7.587217,2.420858,15.018793
0.5,0.5,1,0.5,1,1,1,-->,0.007166,4.750558,-1.589257
0.5,0.5,1,1,0,0,0,-->,2.065117,-2.976540,5.314874
0.5,0.5,1,1,0,0,0.5,-->,0.996436,-1.653535,2.402482
0.5,0.5,1,1,0,0,1,-->,0.000000,4.346929,-0.440343
0.5,0.5,1,1,0,0.5,0,-->,1.369228,-4.264747,3.262102
0.5,0.5,1,1,0,0.5,0.5,-->,0.792445,-2.753439,2.067993
0.5,0.5,1,1,0,0.5,1,-->,0.000000,3.450131,-0.598795
0.5,0.5,1,1,0,1,0,-->,0.643239,-7.881058,2.737776
0.5,0.5,1,1,0,1,0.5,-->,0.345285,-6.271434,1.926170
0.5,0.5,1,1,0,1,1,-->,0.000000,1.482506,-0.865320
0.5,0.5,1,1,0.5,0,0,-->,2.040233,-1.609495,5.057612
0.5,0.5,1,1,0.5,0,0.5,-->,1.134558,-1.057483,3.050074
0.5,0.5,1,1,0.5,0,1,-->,0.000000,3.710539,-0.470787
0.5,0.5,1,1,0.5,0.5,0,-->,1.305488,-2.448885,3.528088
0.5,0.5,1,1,0.5,0.5,0.5,-->,0.842336,-1.829374,2.480226
0.5,0.5,1,1,0.5,0.5,1,-->,0.000000,3.228482,-0.628448
0.5,0.5,1,1,0.5,1,0,-->,0.355895,-6.343798,2.170177
0.5,0.5,1,1,0.5,1,0.5,-->,0.213445,-5.551426,1.647797
0.5,0.5,1,1,0.5,1,1,-->,0.000000,1.326988,-0.964191
0.5,0.5,1,1,1,0,0,-->,3.972678,4.467960,10.504924
0.5,0.5,1,1,1,0,0.5,-->,2.703962,4.140812,8.124063
0.5,0.5,1,1,1,0,1,-->,0.000000,4.058661,0.301483
0.5,0.5,1,1,1,0.5,0,-->,2.829447,3.408485,8.176895
0.5,0.5,1,1,1,0.5,0.5,-->,2.117880,3.299143,6.955352
0.5,0.5,1,1,1,0.5,1,-->,0.000000,3.547300,0.075228
0.5,0.5,1,1,1,1,0,-->,0.055838,-2.039206,1.835689
0.5,0.5,1,1,1,1,0.5,-->,0.007844,-1.868557,1.397025
0.5,0.5,1,1,1,1,1,-->,0.000000,-0.354149,-1.984991
0.5,1,0,0,0,0,0,-->,33.068913,54.213417,-28.525396
0.5,1,0,0,0,0,0.5,-->,20.268681,49.278271,-33.526390
0.5,1,0,0,0,0,1,-->,7.112905,51.994289,-43.935440
0.5,1,0,0,0,0.5,0,-->,23.240398,30.689867,-29.129868
0.5,1,0,0,0,0.5,0.5,-->,13.249543,33.324585,-32.441975
0.5,1,0,0,0,0.5,1,-->,3.088562,38.742867,-39.932529
0.5,1,0,0,0,1,0,-->,13.125452,-0.215699,-33.202232
0.5,1,0,0,0,1,0.5,-->,5.321108,13.732486,-35.510044
0.5,1,0,0,0,1,1,-->,0.824290,21.285431,-36.256771
0.5,1,0,0,0.5,0,0,-->,31.291494,51.534740,7.984823
0.5,1,0,0,0.5,0,0.5,-->,19.271765,44.678314,-1.734987
0.5,1,0,0,0.5,0,1,-->,6.599596,44.092247,-15.636055
0.5,1,0,0,0.5,0.5,0,-->,20.642992,32.391125,0.021317
0.5,1,0,0,0.5,0.5,0.5,-->,13.091524,37.895176,-8.601089
0.5,1,0,0,0.5,0.5,1,-->,2.680188,32.930119,-19.115217
0.5,1,0,0,0.5,1,0,-->,7.508837,6.984337,-13.715645
0.5,1,0,0,0.5,1,0.5,-->,1.655543,14.131722,-20.442310
0.5,1,0,0,0.5,1,1,-->,0.000000,13.388650,-23.304644
0.5,1,0,0,1,0,0,-->,30.329481,51.399605,47.350224
0.5,1,0,0,1,0,0.5,-->,18.973993,44.506016,30.020145
0.5,1,0,0,1,0,1,-->,7.562962,40.863075,11.482110
0.5,1,0,0,1,0.5,0,-->,19.508804,35.634541,31.048233
0.5,1,0,0,1,0.5,0.5,-->,13.829778,33.480846,22.206549
0.5,1,0,0,1,0.5,1,-->,3.378325,36.610085,5.028794
0.5,1,0,0,1,1,0,-->,6.142840,13.298914,9.090715
0.5,1,0,0,1,1,0.5,-->,1.832434,17.593262,2.036014
0.5,1,0,0,1,1,1,-->,0.000000,10.786473,-4.592821
0.5,1,0,0.5,0,0,0,-->,19.204250,38.756073,-19.845728
0.5,1,0,0.5,0,0,0.5,-->,10.051770,36.435326,-23.714201
0.5,1,0,0.5,0,0,1,-->,1.675478,34.449841,-29.085052
0.5,1,0,0.5,0,0.5,0,-->,12.034757,21.870874,-20.817745
0.5,1,0,0.5,0,0.5,0.5,-->,6.165888,26.465239,-21.444424
0.5,1,0,0.5,0,0.5,1,-->,1.028562,21.226992,-22.248201
0.5,1,0,0.5,0,1,0,-->,3.967194,-0.022138,-24.718494
0.5,1,0,0.5,0,1,0.5,-->,0.132054,7.385504,-24.368374
0.5,1,0,0.5,0,1,1,-->,0.000000,11.428699,-18.715174
0.5,1,0,0.5,0.5,0,0,-->,19.377466,34.126266,9.125127
0.5,1,0,0.5,0.5,0,0.5,-->,10.046531,37.756863,-1.359795
0.5,1,0,0.5,0.5,0,1,-->,2.593263,28.604660,-8.826736
0.5,1,0,0.5,0.5,0.5,0,-->,12.013624,24.875799,1.343038
0.5,1,0,0.5,0.5,0.5,0.5,-->,5.634538,27.363008,-5.229940
0.5,1,0,0.5,0.5,0.5,1,-->,0.548746,22.171133,-13.789065
0.5,1,0,0.5,0.5,1,0,-->,1.581681,4.072158,-9.835909
0.5,1,0,0.5,0.5,1,0.5,-->,0.397430,6.439826,-14.007074
0.5,1,0,0.5,0.5,1,1,-->,0.000000,8.014659,-12.989565
0.5,1,0,0.5,1,0,0,-->,19.015539,33.752670,34.430676
0.5,1,0,0.5,1,0,0.5,-->,12.379675,30.643616,22.805214
0.5,1,0,0.5,1,0,1,-->,4.246353,25.664013,9.092768
0.5,1,0,0.5,1,0.5,0,-->,13.483693,21.237099,24.687983
0.5,1,0,0.5,1,0.5,0.5,-->,10.517086,27.681355,19.280098
0.5,1,0,0.5,1,0.5,1,-->,1.058867,22.914434,2.499422
0.5,1,0,0.5,1,1,0,-->,1.620600,5.569049,4.325954
0.5,1,0,0.5,1,1,0.5,-->,0.422815,8.367493,0.966037
0.5,1,0,0.5,1,1,1,-->,0.000000,5.828712,-3.576497
0.5,1,0,1,0,0,0,-->,0.784702,10.566693,1.751136
0.5,1,0,1,0,0,0.5,-->,0.162108,8.898766,-0.781360
0.5,1,0,1,0,0,1,-->,0.000000,9.445601,-2.311728
0.5,1,0,1,0,0.5,0,-->,0.000000,1.275249,-1.174661
0.5,1,0,1,0,0.5,0.5,-->,0.081943,5.779589,-0.399214
0.5,1,0,1,0,0.5,1,-->,0.000000,5.571816,-2.184860
0.5,1,0,1,0,1,0,-->,0.000000,0.269200,-2.407460
0.5,1,0,1,0,1,0.5,-->,0.000000,0.916686,-2.467831
0.5,1,0,1,0,1,1,-->,0.000000,3.204391,-2.067667
0.5,1,0,1,0.5,0,0,-->,2.158330,4.328112,8.067963
0.5,1,0,1,0.5,0,0.5,-->,0.569790,6.769572,2.141284
0.5,1,0,1,0.5,0,1,-->,0.000000,5.735526,-1.313521
0.5,1,0,1,0.5,0.5,0,-->,0.587235,5.081840,2.067416
0.5,1,0,1,0.5,0.5,0.5,-->,0.344093,4.918631,1.087160
0.5,1,0,1,0.5,0.5,1,-->,0.000000,4.568487,-1.594090
0.5,1,0,1,0.5,1,0,-->,0.000000,0.175695,-1.463081
0.5,1,0,1,0.5,1,0.5,-->,0.000000,0.382221,-1.807016
0.5,1,0,1,0.5,1,1,-->,0.000000,2.417058,-1.762330
0.5,1,0,1,1,0,0,-->,3.708336,4.510199,11.644406
0.5,1,0,1,1,0,0.5,-->,2.209418,5.993852,7.431618
0.5,1,0,1,1,0,1,-->,0.000000,5.376886,0.457077
0.5,1,0,1,1,0.5,0,-->,2.214299,4.686235,7.483523
0.5,1,0,1,1,0.5,0.5,-->,1.481793,4.586985,5.933678
0.5,1,0,1,1,0.5,1,-->,0.000000,4.213176,-0.037154
0.5,1,0,1,1,1,0,-->,0.000000,-0.966402,1.116844
0.5,1,0,1,1,1,0.5,-->,0.000000,-0.843775,0.489497
0.5,1,0,1,1,1,1,-->,0.000000,-0.198311,-2.167457
0.5,1,0.5,0,0,0,0,-->,32.408890,47.224876,-2.279581
0.5,1,0.5,0,0,0,0.5,-->,20.166906,42.807980,-10.852597
0.5,1,0.5,0,0,0,1,-->,7.194027,44.343674,-23.591293
0.5,1,0.5,0,0,0.5,0,-->,22.952202,25.148912,-7.165374
0.5,1,0.5,0,0,0.5,0.5,-->,15.705540,31.455069,-11.924065
0.5,1,0.5,0,0,0.5,1,-->,4.051696,30.727758,-22.423599
0.5,1,0.5,0,0,1,0,-->,12.362014,-7.278996,-15.314797
0.5,1,0.5,0,0,1,0.5,-->,3.787517,7.404624,-22.705696
0.5,1,0.5,0,0,1,1,-->,0.303688,13.796231,-22.752245
0.5,1,0.5,0,0.5,0,0,-->,31.256124,49.320812,25.860249
0.5,1,0.5,0,0.5,0,0.5,-->,19.891325,49.883686,10.181257
0.5,1,0.5,0,0.5,0,1,-->,6.621796,41.581615,-5.778494
0.5,1,0.5,0,0.5,0.5,0,-->,23.001970,33.988300,13.847407
0.5,1,0.5,0,0.5,0.5,0.5,-->,14.225392,37.653542,3.255156
0.5,1,0.5,0,0.5,0.5,1,-->,2.455784,38.006981,-20.986206
0.5,1,0.5,0,0.5,1,0,-->,8.902837,6.537192,-2.349034
0.5,1,0.5,0,0.5,1,0.5,-->,3.382607,10.666780,-19.361185
0.5,1,0.5,0,0.5,1,1,-->,0.000000,11.915029,-20.898720
0.5,1,0.5,0,1,0,0,-->,30.446863,50.874733,53.476635
0.5,1,0.5,0,1,0,0.5,-->,20.801266,46.538345,36.526581
0.5,1,0.5,0,1,0,1,-->,7.659734,38.945820,13.814683
0.5,1,0.5,0,1,0.5,0,-->,22.907202,34.973877,39.383072
0.5,1,0.5,0,1,0.5,0.5,-->,19.801569,42.857315,33.748276
0.5,1,0.5,0,1,0.5,1,-->,3.354183,35.805775,5.212234
0.5,1,0.5,0,1,1,0,-->,7.648624,15.661779,12.530397
0.5,1,0.5,0,1,1,0.5,-->,2.131815,18.149141,2.520777
0.5,1,0.5,0,1,1,1,-->,0.000000,9.378771,-5.384288
0.5,1,0.5,0.5,0,0,0,-->,19.084562,32.283760,-0.460710
0.5,1,0.5,0.5,0,0,0.5,-->,11.042268,34.869839,-5.461120
0.5,1,0.5,0.5,0,0,1,-->,2.702669,28.358084,-12.384812
0.5,1,0.5,0.5,0,0.5,0,-->,13.721202,18.978333,-1.739592
0.5,1,0.5,0.5,0,0.5,0.5,-->,6.587480,23.460024,-7.256623
0.5,1,0.5,0.5,0,0.5,1,-->,1.054091,17.833225,-11.518474
0.5,1,0.5,0.5,0,1,0,-->,3.073076,-2.415675,-11.621144
0.5,1,0.5,0.5,0,1,0.5,-->,0.153025,4.410553,-13.880510
0.5,1,0.5,0.5,0,1,1,-->,0.000000,8.149917,-13.117102
0.5,1,0.5,0.5,0.5,0,0,-->,19.283194,35.787384,19.224833
0.5,1,0.5,0.5,0.5,0,0.5,-->,10.023483,37.133636,7.961523
0.5,1,0.5,0.5,0.5,0,1,-->,2.317870,25.926777,-3.022137
0.5,1,0.5,0.5,0.5,0.5,0,-->,12.621421,24.673239,11.286040
0.5,1,0.5,0.5,0.5,0.5,0.5,-->,9.713749,29.695900,0.441909
0.5,1,0.5,0.5,0.5,0.5,1,-->,0.581273,23.076336,-12.712439
0.5,1,0.5,0.5,0.5,1,0,-->,1.838735,4.349968,-3.801635
0.5,1,0.5,0.5,0.5,1,0.5,-->,0.747345,5.442471,-12.349353
0.5,1,0.5,0.5,0.5,1,1,-->,0.000000,7.273562,-11.772148
0.5,1,0.5,0.5,1,0,0,-->,20.584318,33.849365,38.175846
0.5,1,0.5,0.5,1,0,0.5,-->,12.849344,30.839685,24.548758
0.5,1,0.5,0.5,1,0,1,-->,2.385868,25.916714,5.531888
0.5,1,0.5,0.5,1,0.5,0,-->,14.612828,22.604021,27.075014
0.5,1,0.5,0.5,1,0.5,0.5,-->,12.454755,30.323870,23.009657
0.5,1,0.5,0.5,1,0.5,1,-->,1.101647,22.359741,2.297866
0.5,1,0.5,0.5,1,1,0,-->,2.935434,9.431466,5.458992
0.5,1,0.5,0.5,1,1,0.5,-->,0.524466,8.925698,0.994262
0.5,1,0.5,0.5,1,1,1,-->,0.000000,5.216930,-4.040262
0.5,1,0.5,1,0,0,0,-->,1.114821,5.826478,3.827785
0.5,1,0.5,1,0,0,0.5,-->,0.199475,6.397147,0.974549
0.5,1,0.5,1,0,0,1,-->,0.000000,5.592304,-1.610133
0.5,1,0.5,1,0,0.5,0,-->,0.261752,4.484740,1.044708
0.5,1,0.5,1,0,0.5,0.5,-->,0.119975,4.699626,0.388180
0.5,1,0.5,1,0,0.5,1,-->,0.000000,4.500015,-1.666940
0.5,1,0.5,1,0,1,0,-->,0.000000,-0.108271,-1.736074
0.5,1,0.5,1,0,1,0.5,-->,0.000000,0.334982,-1.924840
0.5,1,0.5,1,0,1,1,-->,0.000000,2.405172,-1.739045
0.5,1,0.5,1,0.5,0,0,-->,0.977739,6.240534,3.560888
0.5,1,0.5,1,0.5,0,0.5,-->,0.505021,5.689442,1.920227
0.5,1,0.5,1,0.5,0,1,-->,0.000000,4.678058,-1.442562
0.5,1,0.5,1,0.5,0.5,0,-->,0.527631,4.817921,1.860920
0.5,1,0.5,1,0.5,0.5,0.5,-->,0.329707,4.607960,1.148762
0.5,1,0.5,1,0.5,0.5,1,-->,0.000000,4.107572,-1.563654
0.5,1,0.5,1,0.5,1,0,-->,0.000000,0.138943,-1.612383
0.5,1,0.5,1,0.5,1,0.5,-->,0.000000,0.246189,-1.768706
0.5,1,0.5,1,0.5,1,1,-->,0.000000,2.141755,-1.750490
0.5,1,0.5,1,1,0,0,-->,3.185371,6.357583,9.117892
0.5,1,0.5,1,1,0,0.5,-->,2.022042,5.720616,6.844580
0.5,1,0.5,1,1,0,1,-->,0.000000,4.351549,0.036166
0.5,1,0.5,1,1,0.5,0,-->,2.058235,5.149734,6.859430
0.5,1,0.5,1,1,0.5,0.5,-->,1.436452,4.833910,5.712743
0.5,1,0.5,1,1,0.5,1,-->,0.000000,3.810200,-0.185696
0.5,1,0.5,1,1,1,0,-->,0.000000,-0.766138,0.561344
0.5,1,0.5,1,1,1,0.5,-->,0.000000,-0.748210,0.247876
0.5,1,0.5,1,1,1,1,-->,0.000000,-0.198311,-2.164675
0.5,1,1,0,0,0,0,-->,32.104012,42.603413,26.546371
0.5,1,1,0,0,0,0.5,-->,20.202108,40.511623,13.943648
0.5,1,1,0,0,0,1,-->,8.522007,39.973240,-2.212386
0.5,1,1,0,0,0.5,0,-->,23.221155,22.582287,17.067886
0.5,1,1,0,0,0.5,0.5,-->,15.447694,28.090563,9.804712
0.5,1,1,0,0,0.5,1,-->,4.933241,27.419199,-3.581650
0.5,1,1,0,0,1,0,-->,13.298864,-9.067841,3.141421
0.5,1,1,0,0,1,0.5,-->,4.442468,5.529790,-6.360821
0.5,1,1,0,0,1,1,-->,0.000000,10.727775,-8.303938
0.5,1,1,0,0.5,0,0,-->,31.026966,48.029079,45.215698
0.5,1,1,0,0.5,0,0.5,-->,19.849226,48.088432,27.837404
0.5,1,1,0,0.5,0,1,-->,7.853189,39.312836,8.348798
0.5,1,1,0,0.5,0.5,0,-->,23.127880,32.332928,31.793921
0.5,1,1,0,0.5,0.5,0.5,-->,20.821407,39.925560,24.802143
0.5,1,1,0,0.5,0.5,1,-->,3.658251,35.436222,-0.038294
0.5,1,1,0,0.5,1,0,-->,10.478790,6.673559,10.156088
0.5,1,1,0,0.5,1,0.5,-->,4.480989,10.178247,-0.295936
0.5,1,1,0,0.5,1,1,-->,0.000000,9.352901,-8.270187
0.5,1,1,0,1,0,0,-->,30.920992,50.648296,56.097630
0.5,1,1,0,1,0,0.5,-->,21.250221,46.865917,39.109833
0.5,1,1,0,1,0,1,-->,6.385736,39.802704,12.352901
0.5,1,1,0,1,0.5,0,-->,23.638241,35.694851,42.140171
0.5,1,1,0,1,0.5,0.5,-->,20.690187,42.923004,37.339966
0.5,1,1,0,1,0.5,1,-->,4.047886,36.967949,7.941961
0.5,1,1,0,1,1,0,-->,9.464058,23.126478,13.955442
0.5,1,1,0,1,1,0.5,-->,3.677165,23.370607,5.851633
0.5,1,1,0,1,1,1,-->,0.000000,3.787112,-10.411366
0.5,1,1,0.5,0,0,0,-->,18.907047,28.098679,20.671217
0.5,1,1,0.5,0,0,0.5,-->,11.277210,31.517265,12.508055
0.5,1,1,0.5,0,0,1,-->,4.087987,25.974457,2.712940
0.5,1,1,0.5,0,0.5,0,-->,14.069769,15.454736,16.299324
0.5,1,1,0.5,0,0.5,0.5,-->,7.137430,20.378330,7.484694
0.5,1,1,0.5,0,0.5,1,-->,1.514388,20.503981,-1.288739
0.5,1,1,0.5,0,1,0,-->,3.798650,-3.047224,0.574871
0.5,1,1,0.5,0,1,0.5,-->,1.401606,3.281800,-2.624762
0.5,1,1,0.5,0,1,1,-->,0.000000,5.814167,-5.486199
0.5,1,1,0.5,0.5,0,0,-->,19.434080,33.735676,31.657568
0.5,1,1,0.5,0.5,0,0.5,-->,10.464031,35.026787,17.080502
0.5,1,1,0.5,0.5,0,1,-->,2.375623,26.372690,2.456606
0.5,1,1,0.5,0.5,0.5,0,-->,13.256322,23.015524,20.936642
0.5,1,1,0.5,0.5,0.5,0.5,-->,12.117846,28.418636,16.878748
0.5,1,1,0.5,0.5,0.5,1,-->,1.144911,22.409412,-0.502265
0.5,1,1,0.5,0.5,1,0,-->,4.141891,4.980218,3.532161
0.5,1,1,0.5,0.5,1,0.5,-->,1.264896,5.386492,-1.094303
0.5,1,1,0.5,0.5,1,1,-->,0.000000,5.254244,-5.505912
0.5,1,1,0.5,1,0,0,-->,21.343508,34.541157,40.568348
0.5,1,1,0.5,1,0,0.5,-->,14.532455,33.482594,27.912991
0.5,1,1,0.5,1,0,1,-->,2.582944,25.875980,5.962222
0.5,1,1,0.5,1,0.5,0,-->,16.390055,28.239727,30.073357
0.5,1,1,0.5,1,0.5,0.5,-->,13.293629,31.267389,25.348721
0.5,1,1,0.5,1,0.5,1,-->,1.580994,22.751059,3.492993
0.5,1,1,0.5,1,1,0,-->,4.130252,15.112724,6.700613
0.5,1,1,0.5,1,1,0.5,-->,1.273348,13.254502,2.247511
0.5,1,1,0.5,1,1,1,-->,0.000000,2.413152,-7.048500
0.5,1,1,1,0,0,0,-->,2.240734,2.095869,6.394411
0.5,1,1,1,0,0,0.5,-->,0.550061,2.690567,2.757079
0.5,1,1,1,0,0,1,-->,0.000000,5.235579,-0.423275
0.5,1,1,1,0,0.5,0,-->,0.666744,1.255080,2.911594
0.5,1,1,1,0,0.5,0.5,-->,0.338211,1.733186,1.998579
0.5,1,1,1,0,0.5,1,-->,0.000000,4.173415,-0.635668
0.5,1,1,1,0,1,0,-->,0.000000,-0.875017,-0.333326
0.5,1,1,1,0,1,0.5,-->,0.000000,-0.504180,-0.695454
0.5,1,1,1,0,1,1,-->,0.000000,0.089318,-1.990576
0.5,1,1,1,0.5,0,0,-->,1.419110,3.081627,4.814683
0.5,1,1,1,0.5,0,0.5,-->,0.752723,2.751090,3.050043
0.5,1,1,1,0.5,0,1,-->,0.000000,4.335149,-0.557688
0.5,1,1,1,0.5,0.5,0,-->,0.776685,2.265385,3.025147
0.5,1,1,1,0.5,0.5,0.5,-->,0.491835,2.119959,2.240474
0.5,1,1,1,0.5,0.5,1,-->,0.000000,3.825156,-0.708229
0.5,1,1,1,0.5,1,0,-->,0.000000,-0.444538,-0.594433
0.5,1,1,1,0.5,1,0.5,-->,0.000000,-0.423943,-0.793504
0.5,1,1,1,0.5,1,1,-->,0.000000,0.073222,-2.008990
0.5,1,1,1,1,0,0,-->,3.026950,7.967800,8.568502
0.5,1,1,1,1,0,0.5,-->,1.977333,7.054405,6.625575
0.5,1,1,1,1,0,1,-->,0.000000,1.302897,-1.264154
0.5,1,1,1,1,0.5,0,-->,2.046795,6.766928,6.576710
0.5,1,1,1,1,0.5,0.5,-->,1.472373,6.208601,5.643708
0.5,1,1,1,1,0.5,1,-->,0.000000,1.119443,-1.366247
0.5,1,1,1,1,1,0,-->,0.000000,-0.052886,-1.421762
0.5,1,1,1,1,1,0.5,-->,0.000000,-0.105688,-1.547505
0.5,1,1,1,1,1,1,-->,0.000000,-0.200318,-2.159667
1,0,0,0,0,0,0,-->,56.661247,-42.801556,-51.929958
1,0,0,0,0,0,0.5,-->,34.492664,-5.488069,-57.537464
1,0,0,0,0,0,1,-->,11.927164,45.626453,-71.622566
1,0,0,0,0,0.5,0,-->,50.539410,-58.899273,-35.831020
1,0,0,0,0,0.5,0.5,-->,30.703909,-21.507013,-43.361168
1,0,0,0,0,0.5,1,-->,11.199586,25.036819,-57.204578
1,0,0,0,0,1,0,-->,45.033516,-73.708168,-22.665373
1,0,0,0,0,1,0.5,-->,27.376524,-35.315899,-31.987003
1,0,0,0,0,1,1,-->,10.936147,7.564201,-45.801556
1,0,0,0,0.5,0,0,-->,37.604652,-22.382030,-21.747570
1,0,0,0,0.5,0,0.5,-->,21.431839,-0.136755,-29.276638
1,0,0,0,0.5,0,1,-->,4.810661,30.833559,-41.926678
1,0,0,0,0.5,0.5,0,-->,32.342991,-35.677067,-14.355326
1,0,0,0,0.5,0.5,0.5,-->,17.968634,-11.811849,-22.335634
1,0,0,0,0.5,0.5,1,-->,3.681981,18.296192,-35.439346
1,0,0,0,0.5,1,0,-->,27.501715,-49.845879,-8.354429
1,0,0,0,0.5,1,0.5,-->,15.380131,-24.870745,-17.286093
1,0,0,0,0.5,1,1,-->,3.206725,6.225837,-27.955921
1,0,0,0,1,0,0,-->,23.086744,1.704277,21.435797
1,0,0,0,1,0,0.5,-->,11.503749,10.252192,7.247784
1,0,0,0,1,0,1,-->,1.401408,17.112844,-5.404670
1,0,0,0,1,0.5,0,-->,17.644735,-8.724119,16.720129
1,0,0,0,1,0.5,0.5,-->,7.082710,1.457321,4.018961
1,0,0,0,1,0.5,1,-->,0.265987,10.199816,-4.327223
1,0,0,0,1,1,0,-->,12.380115,-22.097273,12.435798
1,0,0,0,1,1,0.5,-->,4.518578,-4.007273,1.654788
1,0,0,0,1,1,1,-->,0.000000,5.957191,-4.007782
1,0,0,0.5,0,0,0,-->,35.194878,-32.370689,-34.504269
1,0,0,0.5,0,0,0.5,-->,19.852615,-3.721171,-39.597107
1,0,0,0.5,0,0,1,-->,3.947212,33.662933,-50.529270
1,0,0,0.5,0,0.5,0,-->,31.271509,-43.590462,-23.914564
1,0,0,0.5,0,0.5,0.5,-->,17.318892,-14.512934,-30.008039
1,0,0,0.5,0,0.5,1,-->,3.407878,19.296968,-40.377895
1,0,0,0.5,0,1,0,-->,27.296051,-54.827881,-15.785523
1,0,0,0.5,0,1,0.5,-->,14.737771,-23.264494,-22.902321
1,0,0,0.5,0,1,1,-->,3.132392,7.836874,-32.520836
1,0,0,0.5,0.5,0,0,-->,23.482405,-17.827936,-11.330118
1,0,0,0.5,0.5,0,0.5,-->,11.630895,0.055819,-18.038279
1,0,0,0.5,0.5,0,1,-->,0.897145,18.828772,-26.784025
1,0,0,0.5,0.5,0.5,0,-->,19.398975,-27.393019,-7.292181
1,0,0,0.5,0.5,0.5,0.5,-->,11.238856,-10.843821,-14.825398
1,0,0,0.5,0.5,0.5,1,-->,1.190184,16.393423,-22.359861
1,0,0,0.5,0.5,1,0,-->,15.227514,-38.310055,-5.195872
1,0,0,0.5,0.5,1,0.5,-->,10.208332,-18.769085,-8.201442
1,0,0,0.5,0.5,1,1,-->,0.986317,5.290783,-19.722271
1,0,0,0.5,1,0,0,-->,14.401332,-1.859461,19.986570
1,0,0,0.5,1,0,0.5,-->,5.264864,6.144688,6.355015
1,0,0,0.5,1,0,1,-->,0.000000,10.853244,-1.511141
1,0,0,0.5,1,0.5,0,-->,9.503341,-9.202407,13.362872
1,0,0,0.5,1,0.5,0.5,-->,1.704321,-0.944523,0.678560
1,0,0,0.5,1,0.5,1,-->,0.000000,7.077037,-2.396501
1,0,0,0.5,1,1,0,-->,5.081656,-14.217044,7.801703
1,0,0,0.5,1,1,0.5,-->,1.925449,-5.046083,2.068388
1,0,0,0.5,1,1,1,-->,0.000000,2.769740,-3.122855
1,0,0,1,0,0,0,-->,0.528948,-5.747085,-10.245139
1,0,0,1,0,0,0.5,-->,0.000000,4.395703,-8.297918
1,0,0,1,0,0,1,-->,0.000000,8.171210,-6.918289
1,0,0,1,0,0.5,0,-->,1.645724,-8.925425,-5.629892
1,0,0,1,0,0.5,0.5,-->,0.000000,1.700234,-4.130363
1,0,0,1,0,0.5,1,-->,0.000000,4.499985,-2.709308
1,0,0,1,0,1,0,-->,0.884620,-10.926070,-3.490272
1,0,0,1,0,1,0.5,-->,0.000000,1.539791,-3.034494
1,0,0,1,0,1,1,-->,0.000000,5.241249,-3.634239
1,0,0,1,0.5,0,0,-->,0.723683,-4.756592,2.455968
1,0,0,1,0.5,0,0.5,-->,0.000000,2.540946,-0.220122
1,0,0,1,0.5,0,1,-->,0.000000,4.535961,-0.226111
1,0,0,1,0.5,0.5,0,-->,0.000000,-4.471897,1.375899
1,0,0,1,0.5,0.5,0.5,-->,0.000000,-2.339633,-3.811097
1,0,0,1,0.5,0.5,1,-->,0.000000,3.501276,-3.296118
1,0,0,1,0.5,1,0,-->,0.000000,-4.325361,0.399640
1,0,0,1,0.5,1,0.5,-->,0.000000,-4.072546,-2.186160
1,0,0,1,0.5,1,1,-->,0.000000,2.336168,-2.781094
1,0,0,1,1,0,0,-->,4.911006,-6.101165,11.937736
1,0,0,1,1,0,0.5,-->,0.084637,0.030801,4.136618
1,0,0,1,1,0,1,-->,0.000000,6.178993,0.984428
1,0,0,1,1,0.5,0,-->,0.810911,-6.794226,5.947357
1,0,0,1,1,0.5,0.5,-->,0.901964,-2.888597,4.247389
1,0,0,1,1,0.5,1,-->,0.000000,2.762900,-0.335195
1,0,0,1,1,1,0,-->,0.000000,-5.778213,3.260704
1,0,0,1,1,1,0.5,-->,0.000000,-3.125082,0.877988
1,0,0,1,1,1,1,-->,0.000000,-0.428017,-1.941635
1,0,0.5,0,0,0,0,-->,52.263145,-62.663837,-11.603832
1,0,0.5,0,0,0,0.5,-->,31.440395,-26.908218,-25.180801
1,0,0.5,0,0,0,1,-->,10.211336,21.278881,-45.224323
1,0,0.5,0,0,0.5,0,-->,47.178608,-73.401459,-3.990896
1,0,0.5,0,0,0.5,0.5,-->,28.334002,-38.277214,-17.186279
1,0,0.5,0,0,0.5,1,-->,9.378765,5.960277,-36.277313
1,0,0.5,0,0,1,0,-->,42.768429,-82.966858,1.731863
1,0,0.5,0,0,1,0.5,-->,25.951019,-49.162926,-11.174053
1,0,0.5,0,0,1,1,-->,9.570793,-8.927811,-27.642475
1,0,0.5,0,0.5,0,0,-->,36.160595,-30.791290,5.874538
1,0,0.5,0,0.5,0,0.5,-->,20.592169,-10.069407,-6.649271
1,0,0.5,0,0.5,0,1,-->,4.624851,19.525503,-25.010721
1,0,0.5,0,0.5,0.5,0,-->,31.396973,-42.142975,7.841677
1,0,0.5,0,0.5,0.5,0.5,-->,21.376541,-24.138174,-4.664941
1,0,0.5,0,0.5,0.5,1,-->,3.479827,14.383679,-23.711138
1,0,0.5,0,0.5,1,0,-->,27.612555,-55.309658,8.498206
1,0,0.5,0,0.5,1,0.5,-->,19.056015,-37.188637,0.394229
1,0,0.5,0,0.5,1,1,-->,1.840989,2.324449,-29.608360
1,0,0.5,0,1,0,0,-->,24.395075,-0.719362,34.323200
1,0,0.5,0,1,0,0.5,-->,12.286717,7.865236,16.809362
1,0,0.5,0,1,0,1,-->,2.308694,15.704185,1.848274
1,0,0.5,0,1,0.5,0,-->,18.842186,-11.414648,27.131571
1,0,0.5,0,1,0.5,0.5,-->,8.082170,-3.109487,10.519469
1,0,0.5,0,1,0.5,1,-->,0.000000,7.133563,-4.831729
1,0,0.5,0,1,1,0,-->,14.508203,-24.593321,21.604036
1,0,0.5,0,1,1,0.5,-->,3.484001,-10.758750,3.513086
1,0,0.5,0,1,1,1,-->,0.000000,2.144901,-4.749525
1,0,0.5,0.5,0,0,0,-->,32.705261,-45.952194,-8.058235
1,0,0.5,0.5,0,0,0.5,-->,17.785225,-18.024721,-17.962700
1,0,0.5,0.5,0,0,1,-->,2.917764,16.518269,-31.684858
1,0,0.5,0.5,0,0.5,0,-->,29.202032,-54.068035,-2.350280
1,0,0.5,0.5,0,0.5,0.5,-->,16.720654,-27.890230,-13.044822
1,0,0.5,0.5,0,0.5,1,-->,3.072483,11.241993,-24.913181
1,0,0.5,0.5,0,1,0,-->,25.923258,-62.238594,2.187824
1,0,0.5,0.5,0,1,0.5,-->,15.679579,-33.679165,-5.975499
1,0,0.5,0.5,0,1,1,-->,3.505300,1.811082,-17.881863
1,0,0.5,0.5,0.5,0,0,-->,22.563366,-22.876217,7.101370
1,0,0.5,0.5,0.5,0,0.5,-->,13.775812,-8.877844,-2.927523
1,0,0.5,0.5,0.5,0,1,-->,1.783972,17.233284,-15.164470
1,0,0.5,0.5,0.5,0.5,0,-->,20.793438,-32.537823,6.869781
1,0,0.5,0.5,0.5,0.5,0.5,-->,11.455315,-17.713129,-2.788230
1,0,0.5,0.5,0.5,0.5,1,-->,0.617094,11.666825,-21.509583
1,0,0.5,0.5,0.5,1,0,-->,18.355957,-42.178833,9.741818
1,0,0.5,0.5,0.5,1,0.5,-->,11.722402,-30.523306,-4.183196
1,0,0.5,0.5,0.5,1,1,-->,0.260072,2.675581,-18.866148
1,0,0.5,0.5,1,0,0,-->,15.062943,-2.717432,26.178596
1,0,0.5,0.5,1,0,0.5,-->,4.882794,5.864264,8.085093
1,0,0.5,0.5,1,0,1,-->,0.153038,8.798435,0.093042
1,0,0.5,0.5,1,0.5,0,-->,10.089019,-12.559549,16.838957
1,0,0.5,0.5,1,0.5,0.5,-->,4.581763,-2.164235,7.651459
1,0,0.5,0.5,1,0.5,1,-->,0.000000,4.666963,-2.801825
1,0,0.5,0.5,1,1,0,-->,5.889879,-16.083519,10.010616
1,0,0.5,0.5,1,1,0.5,-->,1.062450,-6.845059,1.761472
1,0,0.5,0.5,1,1,1,-->,0.000000,1.106979,-3.585587
1,0,0.5,1,0,0,0,-->,1.234246,-9.202376,-2.777552
1,0,0.5,1,0,0,0.5,-->,0.000000,1.074985,-2.733011
1,0,0.5,1,0,0,1,-->,0.000000,4.571527,-1.722577
1,0,0.5,1,0,0.5,0,-->,1.273940,-10.840750,-0.453734
1,0,0.5,1,0,0.5,0.5,-->,0.000000,-3.355395,-4.433549
1,0,0.5,1,0,0.5,1,-->,0.000000,3.399487,-3.426899
1,0,0.5,1,0,1,0,-->,1.247478,-13.087007,1.477201
1,0,0.5,1,0,1,0.5,-->,0.000000,-5.580837,-1.958833
1,0,0.5,1,0,1,1,-->,0.000000,2.193341,-2.684396
1,0,0.5,1,0.5,0,0,-->,0.254281,-4.969100,4.268273
1,0,0.5,1,0.5,0,0.5,-->,0.000000,-2.308247,-2.741591
1,0,0.5,1,0.5,0,1,-->,0.000000,3.736104,-2.768600
1,0,0.5,1,0.5,0.5,0,-->,0.011972,-4.884501,-2.027366
1,0,0.5,1,0.5,0.5,0.5,-->,0.000000,-2.842818,-3.027054
1,0,0.5,1,0.5,0.5,1,-->,0.000000,3.030558,-3.025709
1,0,0.5,1,0.5,1,0,-->,0.008516,-6.512372,-0.828272
1,0,0.5,1,0.5,1,0.5,-->,0.000000,-4.626936,-1.768265
1,0,0.5,1,0.5,1,1,-->,0.000000,1.844717,-2.612147
1,0,0.5,1,1,0,0,-->,2.961807,-5.596279,10.361474
1,0,0.5,1,1,0,0.5,-->,1.214929,-2.517821,5.298018
1,0,0.5,1,1,0,1,-->,0.000000,2.976737,-0.076034
1,0,0.5,1,1,0.5,0,-->,1.245117,-4.392678,5.692543
1,0,0.5,1,1,0.5,0.5,-->,0.736938,-2.826114,4.106174
1,0,0.5,1,1,0.5,1,-->,0.000000,2.243529,-0.525580
1,0,0.5,1,1,1,0,-->,0.000000,-3.778669,1.437379
1,0,0.5,1,1,1,0.5,-->,0.000000,-2.770804,0.536250
1,0,0.5,1,1,1,1,-->,0.000000,-0.424126,-1.926793
1,0,1,0,0,0,0,-->,49.213421,-74.704277,29.715948
1,0,1,0,0,0,0.5,-->,29.425032,-41.915096,8.365472
1,0,1,0,0,0,1,-->,10.084967,-1.945526,-16.941633
1,0,1,0,0,0.5,0,-->,45.041786,-81.817085,27.752670
1,0,1,0,0,0.5,0.5,-->,26.950397,-53.052456,9.926261
1,0,1,0,0,0.5,1,-->,9.539834,-14.327929,-12.102047
1,0,1,0,0,1,0,-->,41.619675,-88.350197,25.486380
1,0,1,0,0,1,0.5,-->,25.111103,-57.535297,9.518558
1,0,1,0,0,1,1,-->,9.735374,-23.167318,-8.661476
1,0,1,0,0.5,0,0,-->,35.405903,-34.590229,34.507900
1,0,1,0,0.5,0,0.5,-->,20.600956,-18.219536,17.600117
1,0,1,0,0.5,0,1,-->,5.378502,8.281374,-3.098255
1,0,1,0,0.5,0.5,0,-->,31.261566,-46.902443,30.739658
1,0,1,0,0.5,0.5,0.5,-->,19.251032,-32.344524,15.755376
1,0,1,0,0.5,0.5,1,-->,1.628819,-0.532883,-12.650897
1,0,1,0,0.5,1,0,-->,27.690136,-56.983734,27.076473
1,0,1,0,0.5,1,0.5,-->,20.555384,-55.187874,13.857013
1,0,1,0,0.5,1,1,-->,1.516248,-8.580829,-9.465391
1,0,1,0,1,0,0,-->,25.856119,-2.945526,43.019459
1,0,1,0,1,0,0.5,-->,14.177547,5.692224,23.510637
1,0,1,0,1,0,1,-->,3.602317,14.879371,7.093391
1,0,1,0,1,0.5,0,-->,21.000414,-13.897276,34.119015
1,0,1,0,1,0.5,0.5,-->,11.282552,-2.637735,20.460100
1,0,1,0,1,0.5,1,-->,0.000000,6.337535,-0.608317
1,0,1,0,1,1,0,-->,16.973446,-26.618673,28.509726
1,0,1,0,1,1,0.5,-->,5.688270,-15.877584,10.785045
1,0,1,0,1,1,1,-->,0.000000,0.365761,-4.836578
1,0,1,0.5,0,0,0,-->,30.729549,-55.146957,20.343113
1,0,1,0.5,0,0,0.5,-->,16.389814,-30.497263,5.783966
1,0,1,0.5,0,0,1,-->,2.893160,2.652432,-10.937614
1,0,1,0.5,0,0.5,0,-->,27.907784,-60.559761,19.897350
1,0,1,0.5,0,0.5,0.5,-->,14.788057,-42.558453,6.947083
1,0,1,0.5,0,0.5,1,-->,2.729984,-4.494034,-7.877335
1,0,1,0.5,0,1,0,-->,25.323736,-66.622963,19.668451
1,0,1,0.5,0,1,0.5,-->,15.045259,-42.562656,8.283593
1,0,1,0.5,0,1,1,-->,4.018579,-12.412771,-6.633866
1,0,1,0.5,0.5,0,0,-->,22.169668,-26.381702,26.142818
1,0,1,0.5,0.5,0,0.5,-->,12.542270,-19.088001,13.765483
1,0,1,0.5,0.5,0,1,-->,1.946879,4.210774,-2.314517
1,0,1,0.5,0.5,0.5,0,-->,19.880894,-41.520470,24.094742
1,0,1,0.5,0.5,0.5,0.5,-->,13.075766,-29.069101,11.569551
1,0,1,0.5,0.5,0.5,1,-->,0.130524,0.782644,-7.264101
1,0,1,0.5,0.5,1,0,-->,18.709061,-48.202572,21.247980
1,0,1,0.5,0.5,1,0.5,-->,12.112408,-40.342270,10.168673
1,0,1,0.5,0.5,1,1,-->,0.247897,-4.811074,-5.999095
1,0,1,0.5,1,0,0,-->,16.233009,-4.146634,30.126478
1,0,1,0.5,1,0,0.5,-->,6.220148,4.596256,12.400414
1,0,1,0.5,1,0,1,-->,0.965536,7.829670,2.997150
1,0,1,0.5,1,0.5,0,-->,11.664567,-14.414359,21.525867
1,0,1,0.5,1,0.5,0.5,-->,6.189420,-3.034669,12.863336
1,0,1,0.5,1,0.5,1,-->,0.000000,3.292136,-1.068890
1,0,1,0.5,1,1,0,-->,9.208367,-19.805777,16.716602
1,0,1,0.5,1,1,0.5,-->,2.242346,-8.946484,5.071945
1,0,1,0.5,1,1,1,-->,0.000000,0.106675,-3.839777
1,0,1,1,0,0,0,-->,1.676521,-11.992217,3.031135
1,0,1,1,0,0,0.5,-->,0.000000,-0.453688,-0.744996
1,0,1,1,0,0,1,-->,0.000000,4.910499,-0.517509
1,0,1,1,0,0.5,0,-->,2.344692,-13.664158,3.755878
1,0,1,1,0,0.5,0.5,-->,0.146264,-6.051973,0.678803
1,0,1,1,0,0.5,1,-->,0.000000,2.103636,-1.083755
1,0,1,1,0,1,0,-->,1.846757,-15.470817,4.455253
1,0,1,1,0,1,0.5,-->,0.165977,-8.203182,1.409048
1,0,1,1,0,1,1,-->,0.000000,-0.708168,-1.754867
1,0,1,1,0.5,0,0,-->,0.376508,-4.835666,5.297957
1,0,1,1,0.5,0,0.5,-->,0.039898,-4.450025,1.342156
1,0,1,1,0.5,0,1,-->,0.000000,2.461440,-0.875283
1,0,1,1,0.5,0.5,0,-->,0.233768,-6.933245,2.128471
1,0,1,1,0.5,0.5,0.5,-->,0.032237,-4.963795,0.841921
1,0,1,1,0.5,0.5,1,-->,0.000000,1.793344,-1.219263
1,0,1,1,0.5,1,0,-->,0.250171,-8.494574,1.924543
1,0,1,1,0.5,1,0.5,-->,0.036458,-6.717736,0.845158
1,0,1,1,0.5,1,1,-->,0.000000,-0.572059,-1.829731
1,0,1,1,1,0,0,-->,5.180040,-5.400779,12.898826
1,0,1,1,1,0,0.5,-->,1.581724,-2.555629,5.958756
1,0,1,1,1,0,1,-->,0.000000,0.085609,-1.268486
1,0,1,1,1,0.5,0,-->,1.580977,-3.800624,6.166681
1,0,1,1,1,0.5,0.5,-->,0.975447,-2.560029,4.521932
1,0,1,1,1,0.5,1,-->,0.000000,-0.147136,-1.560128
1,0,1,1,1,1,0,-->,0.000000,-1.914398,-0.443581
1,0,1,1,1,1,0.5,-->,0.000000,-1.247329,-1.082326
1,0,1,1,1,1,1,-->,0.000000,-0.420235,-1.914398
1,0.5,0,0,0,0,0,-->,39.200203,-13.680170,-50.412937
1,0.5,0,0,0,0,0.5,-->,23.175262,11.413349,-53.450226
1,0.5,0,0,0,0,1,-->,6.777256,47.319218,-63.491772
1,0.5,0,0,0,0.5,0,-->,34.268436,-30.324226,-37.783401
1,0.5,0,0,0,0.5,0.5,-->,20.149368,-3.624625,-42.179745
1,0.5,0,0,0,0.5,1,-->,5.425365,31.327639,-53.112465
1,0.5,0,0,0,1,0,-->,29.681822,-45.989471,-28.222279
1,0.5,0,0,0,1,0.5,-->,17.318966,-18.086132,-33.918037
1,0.5,0,0,0,1,1,-->,5.127160,16.237083,-43.969341
1,0.5,0,0,0.5,0,0,-->,26.660215,-2.732441,-21.024637
1,0.5,0,0,0.5,0,0.5,-->,14.601323,11.691798,-26.649628
1,0.5,0,0,0.5,0,1,-->,2.473378,31.965715,-37.132511
1,0.5,0,0,0.5,0.5,0,-->,21.910362,-16.710264,-16.398226
1,0.5,0,0,0.5,0.5,0.5,-->,14.808027,-1.943041,-23.964531
1,0.5,0,0,0.5,0.5,1,-->,1.911303,26.012712,-34.368412
1,0.5,0,0,0.5,1,0,-->,17.519144,-33.591465,-14.050392
1,0.5,0,0,0.5,1,0.5,-->,12.321020,-15.992916,-17.449963
1,0.5,0,0,0.5,1,1,-->,1.412331,9.517524,-34.878471
1,0.5,0,0,1,0,0,-->,17.564983,11.407086,16.657904
1,0.5,0,0,1,0,0.5,-->,7.595973,16.990400,4.121707
1,0.5,0,0,1,0,1,-->,0.800034,19.017227,-4.770424
1,0.5,0,0,1,0.5,0,-->,11.375682,0.884038,10.268349
1,0.5,0,0,1,0.5,0.5,-->,3.338655,8.117558,-2.228565
1,0.5,0,0,1,0.5,1,-->,0.000000,10.778312,-8.644673
1,0.5,0,0,1,1,0,-->,6.239621,-11.045894,4.219544
1,0.5,0,0,1,1,0.5,-->,2.184652,-4.637370,-2.364203
1,0.5,0,0,1,1,1,-->,0.000000,4.753857,-8.109251
1,0.5,0,0.5,0,0,0,-->,23.551672,-10.326995,-34.710278
1,0.5,0,0.5,0,0,0.5,-->,12.140142,9.106493,-37.341881
1,0.5,0,0.5,0,0,1,-->,1.619544,30.359148,-42.710911
1,0.5,0,0.5,0,0.5,0,-->,19.879652,-22.528551,-26.443398
1,0.5,0,0.5,0,0.5,0.5,-->,10.657481,-4.733034,-30.717583
1,0.5,0,0.5,0,0.5,1,-->,1.554144,21.623932,-34.262920
1,0.5,0,0.5,0,1,0,-->,15.925508,-34.579018,-20.729780
1,0.5,0,0.5,0,1,0.5,-->,9.571404,-13.614540,-21.749949
1,0.5,0,0.5,0,1,1,-->,1.869434,10.221429,-25.861328
1,0.5,0,0.5,0.5,0,0,-->,16.409529,-3.323613,-10.851040
1,0.5,0,0.5,0.5,0,0.5,-->,8.805476,8.047565,-17.756029
1,0.5,0,0.5,0.5,0,1,-->,0.880124,23.228100,-22.256227
1,0.5,0,0.5,0.5,0.5,0,-->,13.868567,-12.602898,-10.640774
1,0.5,0,0.5,0.5,0.5,0.5,-->,6.930499,-1.681463,-16.372919
1,0.5,0,0.5,0.5,0.5,1,-->,0.359599,16.881330,-26.725159
1,0.5,0,0.5,0.5,1,0,-->,11.333015,-23.803442,-6.160290
1,0.5,0,0.5,0.5,1,0.5,-->,8.431276,-18.722485,-13.514462
1,0.5,0,0.5,0.5,1,1,-->,0.228182,6.225928,-22.326765
1,0.5,0,0.5,1,0,0,-->,10.678317,6.031181,16.179205
1,0.5,0,0.5,1,0,0.5,-->,1.880683,10.904176,0.878520
1,0.5,0,0.5,1,0,1,-->,0.000000,9.638799,-2.207476
1,0.5,0,0.5,1,0.5,0,-->,4.619880,-1.364514,5.711147
1,0.5,0,0.5,1,0.5,0.5,-->,2.840897,3.337308,2.236720
1,0.5,0,0.5,1,0.5,1,-->,0.000000,6.637689,-4.781291
1,0.5,0,0.5,1,1,0,-->,1.341004,-4.187793,0.948482
1,0.5,0,0.5,1,1,0.5,-->,0.579710,-3.288176,-1.323051
1,0.5,0,0.5,1,1,1,-->,0.000000,2.649317,-5.441969
1,0.5,0,1,0,0,0,-->,0.222151,1.836069,-5.895498
1,0.5,0,1,0,0,0.5,-->,0.000000,6.027031,-5.232927
1,0.5,0,1,0,0,1,-->,0.000000,8.086855,-4.581118
1,0.5,0,1,0,0.5,0,-->,0.000000,-1.719773,-4.359605
1,0.5,0,1,0,0.5,0.5,-->,0.000000,-0.769983,-5.767923
1,0.5,0,1,0,0.5,1,-->,0.000000,4.434066,-4.502690
1,0.5,0,1,0,1,0,-->,0.000000,-2.587745,-3.407057
1,0.5,0,1,0,1,0.5,-->,0.000000,-3.137302,-3.484960
1,0.5,0,1,0,1,1,-->,0.000000,2.826129,-3.409686
1,0.5,0,1,0.5,0,0,-->,0.216436,-0.169874,3.413228
1,0.5,0,1,0.5,0,0.5,-->,0.000000,-0.383863,-3.365160
1,0.5,0,1,0.5,0,1,-->,0.000000,4.387815,-3.345675
1,0.5,0,1,0.5,0.5,0,-->,0.001431,-2.195363,-3.061389
1,0.5,0,1,0.5,0.5,0.5,-->,0.000000,-1.280607,-3.664979
1,0.5,0,1,0.5,0.5,1,-->,0.000000,3.468340,-3.494718
1,0.5,0,1,0.5,1,0,-->,0.000000,-4.125553,-2.095603
1,0.5,0,1,0.5,1,0.5,-->,0.000000,-3.317328,-2.522882
1,0.5,0,1,0.5,1,1,-->,0.000000,2.036789,-2.854293
1,0.5,0,1,1,0,0,-->,2.925981,-3.148678,10.292834
1,0.5,0,1,1,0,0.5,-->,1.162246,-1.711398,5.123896
1,0.5,0,1,1,0,1,-->,0.000000,3.159629,-0.263850
1,0.5,0,1,1,0.5,0,-->,1.160693,-2.910021,5.258895
1,0.5,0,1,1,0.5,0.5,-->,0.717666,-2.243217,3.950944
1,0.5,0,1,1,0.5,1,-->,0.000000,2.353768,-0.668734
1,0.5,0,1,1,1,0,-->,0.000000,-2.833766,0.934438
1,0.5,0,1,1,1,0.5,-->,0.000000,-2.454919,0.312503
1,0.5,0,1,1,1,1,-->,0.000000,-0.313293,-2.054603
1,0.5,0.5,0,0,0,0,-->,36.132008,-30.595783,-18.778843
1,0.5,0.5,0,0,0,0.5,-->,21.106277,-6.108689,-27.253824
1,0.5,0.5,0,0,0,1,-->,5.150920,29.659605,-42.500507
1,0.5,0.5,0,0,0.5,0,-->,31.912363,-43.948078,-12.244410
1,0.5,0.5,0,0,0.5,0.5,-->,20.532436,-18.593458,-22.910414
1,0.5,0.5,0,0,0.5,1,-->,4.271918,21.169401,-36.832413
1,0.5,0.5,0,0,1,0,-->,27.898571,-56.931637,-8.314775
1,0.5,0.5,0,0,1,0.5,-->,18.325037,-30.494314,-15.315458
1,0.5,0.5,0,0,1,1,-->,3.960193,6.204406,-29.256918
1,0.5,0.5,0,0.5,0,0,-->,25.827085,-9.509537,0.910272
1,0.5,0.5,0,0.5,0,0.5,-->,18.432627,2.997697,-8.798383
1,0.5,0.5,0,0.5,0,1,-->,3.244544,29.125870,-24.148001
1,0.5,0.5,0,0.5,0.5,0,-->,25.115282,-20.679455,-0.028582
1,0.5,0.5,0,0.5,0.5,0.5,-->,15.668180,-9.057688,-10.287712
1,0.5,0.5,0,0.5,0.5,1,-->,1.624097,25.624601,-40.907974
1,0.5,0.5,0,0.5,1,0,-->,21.469570,-36.361881,3.024037
1,0.5,0.5,0,0.5,1,0.5,-->,18.614296,-35.651627,-14.976121
1,0.5,0.5,0,0.5,1,1,-->,1.245089,7.131161,-32.025829
1,0.5,0.5,0,1,0,0,-->,18.122934,10.831524,27.112967
1,0.5,0.5,0,1,0,0.5,-->,8.020321,19.468445,9.503860
1,0.5,0.5,0,1,0,1,-->,0.697472,17.240564,-2.349779
1,0.5,0.5,0,1,0.5,0,-->,13.153884,1.461212,17.314341
1,0.5,0.5,0,1,0.5,0.5,-->,7.927199,6.816477,6.241598
1,0.5,0.5,0,1,0.5,1,-->,0.000000,10.103772,-7.871680
1,0.5,0.5,0,1,1,0,-->,8.199084,-10.877517,9.460299
1,0.5,0.5,0,1,1,0.5,-->,2.553064,-5.141367,-1.090944
1,0.5,0.5,0,1,1,1,-->,0.000000,4.167274,-7.938907
1,0.5,0.5,0.5,0,0,0,-->,21.902697,-22.926214,-12.589712
1,0.5,0.5,0.5,0,0,0.5,-->,12.549064,-3.792964,-18.128477
1,0.5,0.5,0.5,0,0,1,-->,1.698737,22.477747,-25.985863
1,0.5,0.5,0.5,0,0.5,0,-->,19.177570,-29.185452,-8.794263
1,0.5,0.5,0.5,0,0.5,0.5,-->,10.007132,-12.933252,-15.883763
1,0.5,0.5,0.5,0,0.5,1,-->,1.025139,15.154932,-22.484997
1,0.5,0.5,0.5,0,1,0,-->,16.836494,-38.393055,-3.331479
1,0.5,0.5,0.5,0,1,0.5,-->,9.586636,-19.743315,-9.037853
1,0.5,0.5,0.5,0,1,1,-->,0.770679,5.071884,-20.827101
1,0.5,0.5,0.5,0.5,0,0,-->,17.940992,-6.915834,3.318415
1,0.5,0.5,0.5,0.5,0,0.5,-->,9.008110,2.411465,-5.437721
1,0.5,0.5,0.5,0.5,0,1,-->,0.697607,18.826857,-14.132954
1,0.5,0.5,0.5,0.5,0.5,0,-->,14.223482,-15.761524,1.648481
1,0.5,0.5,0.5,0.5,0.5,0.5,-->,11.439131,-10.215547,-12.411343
1,0.5,0.5,0.5,0.5,0.5,1,-->,0.284689,15.718700,-26.747904
1,0.5,0.5,0.5,0.5,1,0,-->,12.296350,-25.984070,3.621517
1,0.5,0.5,0.5,0.5,1,0.5,-->,10.480356,-25.716702,-10.499133
1,0.5,0.5,0.5,0.5,1,1,-->,0.220053,4.978120,-20.337391
1,0.5,0.5,0.5,1,0,0,-->,10.024634,8.547041,16.812677
1,0.5,0.5,0.5,1,0,0.5,-->,2.238041,10.576710,2.993092
1,0.5,0.5,0.5,1,0,1,-->,0.000000,8.699550,-2.956933
1,0.5,0.5,0.5,1,0.5,0,-->,5.296130,-0.057324,8.057217
1,0.5,0.5,0.5,1,0.5,0.5,-->,4.032953,3.095823,4.779467
1,0.5,0.5,0.5,1,0.5,1,-->,0.000000,6.156787,-4.626844
1,0.5,0.5,0.5,1,1,0,-->,3.231561,-5.878847,3.545886
1,0.5,0.5,0.5,1,1,0.5,-->,0.710642,-3.476616,-0.929985
1,0.5,0.5,0.5,1,1,1,-->,0.000000,2.384425,-5.398461
1,0.5,0.5,1,0,0,0,-->,0.380892,-2.210759,-0.521302
1,0.5,0.5,1,0,0,0.5,-->,0.000000,-1.038682,-4.428184
1,0.5,0.5,1,0,0,1,-->,0.000000,4.270127,-3.730837
1,0.5,0.5,1,0,0.5,0,-->,0.001533,-3.304554,-3.966372
1,0.5,0.5,1,0,0.5,0.5,-->,0.000000,-1.910446,-4.260620
1,0.5,0.5,1,0,0.5,1,-->,0.000000,3.385535,-3.614807
1,0.5,0.5,1,0,1,0,-->,0.007462,-5.478637,-2.126146
1,0.5,0.5,1,0,1,0.5,-->,0.000000,-4.102496,-2.461812
1,0.5,0.5,1,0,1,1,-->,0.000000,1.963438,-2.826630
1,0.5,0.5,1,0.5,0,0,-->,0.040781,-2.315193,-1.909018
1,0.5,0.5,1,0.5,0,0.5,-->,0.000000,-1.435814,-3.036318
1,0.5,0.5,1,0.5,0,1,-->,0.000000,3.396448,-3.295449
1,0.5,0.5,1,0.5,0.5,0,-->,0.000000,-2.601333,-2.824221
1,0.5,0.5,1,0.5,0.5,0.5,-->,0.000000,-1.833941,-3.249669
1,0.5,0.5,1,0.5,0.5,1,-->,0.000000,2.993548,-3.322557
1,0.5,0.5,1,0.5,1,0,-->,0.000000,-4.405643,-2.007151
1,0.5,0.5,1,0.5,1,0.5,-->,0.000000,-3.738581,-2.246614
1,0.5,0.5,1,0.5,1,1,-->,0.000000,1.724537,-2.721285
1,0.5,0.5,1,1,0,0,-->,1.553947,-2.689214,6.170983
1,0.5,0.5,1,1,0,0.5,-->,0.824765,-2.164805,4.336654
1,0.5,0.5,1,1,0,1,-->,0.000000,2.319920,-0.653246
1,0.5,0.5,1,1,0.5,0,-->,0.843495,-2.635995,4.445571
1,0.5,0.5,1,1,0.5,0.5,-->,0.538959,-2.204391,3.538803
1,0.5,0.5,1,1,0.5,1,-->,0.000000,2.029828,-0.797775
1,0.5,0.5,1,1,1,0,-->,0.000000,-2.470407,0.407619
1,0.5,0.5,1,1,1,0.5,-->,0.000000,-2.254465,0.094638
1,0.5,0.5,1,1,1,1,-->,0.000000,-0.313141,-2.048972
1,0.5,1,0,0,0,0,-->,33.982101,-42.431206,14.719505
1,0.5,1,0,0,0,0.5,-->,19.669552,-20.940365,0.224332
1,0.5,1,0,0,0,1,-->,5.055882,11.877684,-19.296490
1,0.5,1,0,0,0.5,0,-->,30.141909,-53.778072,13.731665
1,0.5,1,0,0,0.5,0.5,-->,17.916084,-34.813595,1.161742
1,0.5,1,0,0,0.5,1,-->,3.444927,1.259336,-17.054510
1,0.5,1,0,0,1,0,-->,27.140757,-64.153725,11.714110
1,0.5,1,0,0,1,0.5,-->,16.869316,-40.879066,1.282971
1,0.5,1,0,0,1,1,-->,1.917034,-5.886431,-13.797698
1,0.5,1,0,0.5,0,0,-->,25.689730,-14.539441,24.752882
1,0.5,1,0,0.5,0,0.5,-->,16.405344,-7.665792,12.535414
1,0.5,1,0,0.5,0,1,-->,2.840468,12.970201,-7.933541
1,0.5,1,0,0.5,0.5,0,-->,23.607012,-30.372166,21.941246
1,0.5,1,0,0.5,0.5,0.5,-->,21.421179,-32.502254,10.625939
1,0.5,1,0,0.5,0.5,1,-->,1.185327,4.668331,-15.967032
1,0.5,1,0,0.5,1,0,-->,21.145798,-42.716812,16.920212
1,0.5,1,0,0.5,1,0.5,-->,17.817610,-45.989540,7.558000
1,0.5,1,0,0.5,1,1,-->,0.991590,-3.578648,-12.954668
1,0.5,1,0,1,0,0,-->,19.416143,8.941946,33.243267
1,0.5,1,0,1,0,0.5,-->,9.322531,17.703228,15.555796
1,0.5,1,0,1,0,1,-->,0.000000,10.733307,-2.850014
1,0.5,1,0,1,0.5,0,-->,14.999986,-0.109928,23.952616
1,0.5,1,0,1,0.5,0.5,-->,9.802275,4.607929,15.200772
1,0.5,1,0,1,0.5,1,-->,0.000000,8.244182,-4.152683
1,0.5,1,0,1,1,0,-->,10.416199,-10.329434,12.565295
1,0.5,1,0,1,1,0.5,-->,4.397847,-8.262794,5.038492
1,0.5,1,0,1,1,1,-->,0.000000,1.972558,-7.162456
1,0.5,1,0.5,0,0,0,-->,20.459291,-31.480429,10.997940
1,0.5,1,0.5,0,0,0.5,-->,10.582946,-18.410734,1.756988
1,0.5,1,0.5,0,0,1,-->,1.455947,5.185529,-9.362341
1,0.5,1,0.5,0,0.5,0,-->,17.457073,-41.866631,11.095792
1,0.5,1,0.5,0,0.5,0.5,-->,8.210330,-26.492422,0.971327
1,0.5,1,0.5,0,0.5,1,-->,0.599906,2.289476,-10.277142
1,0.5,1,0.5,0,1,0,-->,16.346331,-46.208271,10.475559
1,0.5,1,0.5,0,1,0.5,-->,10.860670,-33.824875,4.015222
1,0.5,1,0.5,0,1,1,-->,0.499727,-3.329381,-8.436019
1,0.5,1,0.5,0.5,0,0,-->,16.947828,-15.618561,20.693880
1,0.5,1,0.5,0.5,0,0.5,-->,7.735027,-9.394396,7.543788
1,0.5,1,0.5,0.5,0,1,-->,0.417698,5.988030,-6.953749
1,0.5,1,0.5,0.5,0.5,0,-->,13.245681,-26.389835,15.183613
1,0.5,1,0.5,0.5,0.5,0.5,-->,12.502411,-24.887091,7.821174
1,0.5,1,0.5,0.5,0.5,1,-->,0.148444,3.221216,-9.267923
1,0.5,1,0.5,0.5,1,0,-->,13.553999,-34.623280,11.061776
1,0.5,1,0.5,0.5,1,0.5,-->,10.260192,-32.876225,5.792675
1,0.5,1,0.5,0.5,1,1,-->,0.214021,-2.098430,-7.935958
1,0.5,1,0.5,1,0,0,-->,11.086972,7.618948,20.608110
1,0.5,1,0.5,1,0,0.5,-->,5.776874,6.879584,10.898598
1,0.5,1,0.5,1,0,1,-->,0.000000,5.738809,-2.401061
1,0.5,1,0.5,1,0.5,0,-->,9.072186,-0.061549,15.364377
1,0.5,1,0.5,1,0.5,0.5,-->,5.268258,1.871134,9.609601
1,0.5,1,0.5,1,0.5,1,-->,0.000000,4.516308,-3.133920
1,0.5,1,0.5,1,1,0,-->,4.692089,-6.812479,6.177306
1,0.5,1,0.5,1,1,0.5,-->,1.622217,-4.791026,1.890969
1,0.5,1,0.5,1,1,1,-->,0.000000,1.199178,-5.260917
1,0.5,1,1,0,0,0,-->,1.360753,-5.094045,3.753249
1,0.5,1,1,0,0,0.5,-->,0.018083,-3.991671,0.572804
1,0.5,1,1,0,0,1,-->,0.000000,2.568062,-1.305146
1,0.5,1,1,0,0.5,0,-->,0.230931,-6.130644,1.169114
1,0.5,1,1,0,0.5,0.5,-->,0.032381,-4.624086,0.374105
1,0.5,1,1,0,0.5,1,-->,0.000000,1.853806,-1.415219
1,0.5,1,1,0,1,0,-->,0.220042,-7.666005,1.156103
1,0.5,1,1,0,1,0.5,-->,0.042795,-6.317192,0.518710
1,0.5,1,1,0,1,1,-->,0.000000,-0.478356,-1.962101
1,0.5,1,1,0.5,0,0,-->,0.235853,-4.798512,2.032701
1,0.5,1,1,0.5,0,0.5,-->,0.000000,-3.880329,0.685491
1,0.5,1,1,0.5,0,1,-->,0.000000,1.898918,-1.387952
1,0.5,1,1,0.5,0.5,0,-->,0.083151,-4.836563,0.987499
1,0.5,1,1,0.5,0.5,0.5,-->,0.019237,-4.116889,0.392694
1,0.5,1,1,0.5,0.5,1,-->,0.000000,1.636230,-1.452898
1,0.5,1,1,0.5,1,0,-->,0.092326,-6.224712,0.627871
1,0.5,1,1,0.5,1,0.5,-->,0.024519,-5.573914,0.262315
1,0.5,1,1,0.5,1,1,-->,0.000000,-0.438200,-1.969389
1,0.5,1,1,1,0,0,-->,1.518193,-2.378520,5.766441
1,0.5,1,1,1,0,0.5,-->,0.826372,-2.097297,4.106204
1,0.5,1,1,1,0,1,-->,0.000000,-0.053843,-1.701283
1,0.5,1,1,1,0.5,0,-->,0.816146,-2.179183,4.169387
1,0.5,1,1,1,0.5,0.5,-->,0.540430,-1.964578,3.412529
1,0.5,1,1,1,0.5,1,-->,0.000000,-0.082326,-1.742457
1,0.5,1,1,1,1,0,-->,0.000000,-1.023711,-1.196199
1,0.5,1,1,1,1,0.5,-->,0.000000,-0.965825,-1.342688
1,0.5,1,1,1,1,1,-->,0.000000,-0.311165,-2.038659
1,1,0,0,0,0,0,-->,20.423767,23.957205,-51.447468
1,1,0,0,0,0,0.5,-->,11.355068,33.663570,-51.306450
1,1,0,0,0,0,1,-->,3.137207,46.575871,-55.124516
1,1,0,0,0,0.5,0,-->,16.834471,6.717773,-42.916637
1,1,0,0,0,0.5,0.5,-->,7.967124,19.951794,-44.963017
1,1,0,0,0,0.5,1,-->,1.933862,31.939756,-46.886589
1,1,0,0,0,1,0,-->,13.109695,-8.544746,-38.400776
1,1,0,0,0,1,0.5,-->,6.204974,9.865357,-39.526413
1,1,0,0,0,1,1,-->,1.329969,20.684820,-41.404667
1,1,0,0,0.5,0,0,-->,16.514719,18.891605,-19.038826
1,1,0,0,0.5,0,0.5,-->,7.489193,25.862986,-25.512028
1,1,0,0,0.5,0,1,-->,1.214873,29.187868,-29.177799
1,1,0,0,0.5,0.5,0,-->,10.844639,7.171637,-20.678665
1,1,0,0,0.5,0.5,0.5,-->,4.854125,16.365076,-26.456087
1,1,0,0,0.5,0.5,1,-->,0.000000,24.618431,-37.166885
1,1,0,0,0.5,1,0,-->,5.927240,-6.292850,-21.537693
1,1,0,0,0.5,1,0.5,-->,2.746393,1.107466,-30.802347
1,1,0,0,0.5,1,1,-->,0.000000,11.694914,-30.637423
1,1,0,0,1,0,0,-->,13.857518,20.042807,13.038917
1,1,0,0,1,0,0.5,-->,6.173682,22.871588,2.145297
1,1,0,0,1,0,1,-->,0.679424,21.097281,-4.743194
1,1,0,0,1,0.5,0,-->,8.025150,9.752002,5.282271
1,1,0,0,1,0.5,0.5,-->,3.254011,17.051622,-1.519949
1,1,0,0,1,0.5,1,-->,0.000000,11.848577,-8.743308
1,1,0,0,1,1,0,-->,2.533781,-1.540855,-1.513618
1,1,0,0,1,1,0.5,-->,0.000000,2.361125,-7.357317
1,1,0,0,1,1,1,-->,0.000000,3.898826,-10.836577
1,1,0,0.5,0,0,0,-->,11.219146,17.449598,-35.741058
1,1,0,0.5,0,0,0.5,-->,4.857538,23.578594,-35.141994
1,1,0,0.5,0,0,1,-->,0.222816,26.267450,-35.134518
1,1,0,0.5,0,0.5,0,-->,7.512835,4.855965,-31.198324
1,1,0,0.5,0,0.5,0.5,-->,1.750184,11.737334,-32.443775
1,1,0,0.5,0,0.5,1,-->,0.024726,19.203842,-29.113293
1,1,0,0.5,0,1,0,-->,4.041390,-4.750642,-28.675177
1,1,0,0.5,0,1,0.5,-->,1.057165,5.193068,-26.826477
1,1,0,0.5,0,1,1,-->,0.000000,11.380792,-27.776577
1,1,0,0.5,0.5,0,0,-->,9.727819,12.947874,-10.335894
1,1,0,0.5,0.5,0,0.5,-->,2.339157,19.948557,-18.129496
1,1,0,0.5,0.5,0,1,-->,0.152723,20.815474,-18.570515
1,1,0,0.5,0.5,0.5,0,-->,4.617528,6.973576,-14.824813
1,1,0,0.5,0.5,0.5,0.5,-->,2.372455,11.819516,-20.876711
1,1,0,0.5,0.5,0.5,1,-->,0.000000,14.478675,-23.120491
1,1,0,0.5,0.5,1,0,-->,2.336364,-1.838539,-14.075524
1,1,0,0.5,0.5,1,0.5,-->,0.544213,0.780379,-20.343151
1,1,0,0.5,0.5,1,1,-->,0.000000,6.481958,-19.112419
1,1,0,0.5,1,0,0,-->,8.992884,11.907839,13.853289
1,1,0,0.5,1,0,0.5,-->,2.368043,10.801080,2.222235
1,1,0,0.5,1,0,1,-->,0.000000,11.513116,-3.463165
1,1,0,0.5,1,0.5,0,-->,3.847802,2.041258,4.671173
1,1,0,0.5,1,0.5,0.5,-->,1.830571,8.990294,0.998518
1,1,0,0.5,1,0.5,1,-->,0.000000,6.553562,-5.679388
1,1,0,0.5,1,1,0,-->,0.576492,-0.896098,-1.606926
1,1,0,0.5,1,1,0.5,-->,0.000000,1.237160,-4.840469
1,1,0,0.5,1,1,1,-->,0.000000,2.490576,-7.298185
1,1,0,1,0,0,0,-->,0.000000,7.610893,-1.241241
1,1,0,1,0,0,0.5,-->,0.000000,8.047535,-2.626921
1,1,0,1,0,0,1,-->,0.000000,8.217902,-3.404670
1,1,0,1,0,0.5,0,-->,0.000000,1.185453,-1.982802
1,1,0,1,0,0.5,0.5,-->,0.000000,3.693622,-2.363914
1,1,0,1,0,0.5,1,-->,0.000000,4.415614,-3.306605
1,1,0,1,0,1,0,-->,0.000000,-0.217903,-3.852142
1,1,0,1,0,1,0.5,-->,0.000000,0.168551,-3.558350
1,1,0,1,0,1,1,-->,0.000000,0.677040,-3.194549
1,1,0,1,0.5,0,0,-->,0.770955,2.317366,5.882107
1,1,0,1,0.5,0,0.5,-->,0.000000,3.856147,-0.305557
1,1,0,1,0.5,0,1,-->,0.000000,4.326015,-2.511187
1,1,0,1,0.5,0.5,0,-->,0.000000,2.675946,-0.305633
1,1,0,1,0.5,0.5,0.5,-->,0.000000,2.727638,-1.057187
1,1,0,1,0.5,0.5,1,-->,0.000000,3.396113,-2.736636
1,1,0,1,0.5,1,0,-->,0.000000,-0.223238,-2.664090
1,1,0,1,0.5,1,0.5,-->,0.000000,-0.155237,-2.925714
1,1,0,1,0.5,1,1,-->,0.000000,0.273578,-2.713799
1,1,0,1,1,0,0,-->,4.801569,1.708168,12.007789
1,1,0,1,1,0,0.5,-->,1.411350,1.333234,5.346822
1,1,0,1,1,0,1,-->,0.000000,0.568092,-1.603111
1,1,0,1,1,0.5,0,-->,1.388710,0.760651,5.265963
1,1,0,1,1,0.5,0.5,-->,0.879631,0.724720,3.949348
1,1,0,1,1,0.5,1,-->,0.000000,0.220259,-1.859476
1,1,0,1,1,1,0,-->,0.000000,-0.229576,-1.381325
1,1,0,1,1,1,0.5,-->,0.000000,-0.213587,-1.728018
1,1,0,1,1,1,1,-->,0.000000,-0.190666,-2.178986
1,1,0.5,0,0,0,0,-->,19.775814,7.724431,-26.736261
1,1,0.5,0,0,0,0.5,-->,9.845804,20.058676,-31.941101
1,1,0.5,0,0,0,1,-->,2.245920,31.684668,-36.859489
1,1,0.5,0,0,0.5,0,-->,15.439144,-6.668422,-23.826302
1,1,0.5,0,0,0.5,0.5,-->,6.856790,9.316743,-30.770575
1,1,0.5,0,0,0.5,1,-->,0.970719,22.374727,-33.563000
1,1,0.5,0,0,1,0,-->,11.881271,-22.320442,-21.628508
1,1,0.5,0,0,1,0.5,-->,4.739118,-1.847803,-27.036219
1,1,0.5,0,0,1,1,-->,0.000000,11.631670,-30.828514
1,1,0.5,0,0.5,0,0,-->,16.119709,14.744599,-4.199907
1,1,0.5,0,0.5,0,0.5,-->,7.450122,25.552376,-14.891166
1,1,0.5,0,0.5,0,1,-->,1.063836,27.495134,-21.778341
1,1,0.5,0,0.5,0.5,0,-->,11.880280,7.303945,-9.134991
1,1,0.5,0,0.5,0.5,0.5,-->,6.707105,17.155935,-30.269526
1,1,0.5,0,0.5,0.5,1,-->,0.000000,21.910133,-33.783806
1,1,0.5,0,0.5,1,0,-->,7.800645,-7.844215,-11.294362
1,1,0.5,0,0.5,1,0.5,-->,2.634229,-0.530163,-27.507355
1,1,0.5,0,0.5,1,1,-->,0.000000,9.938435,-28.044495
1,1,0.5,0,1,0,0,-->,14.285612,19.840582,21.149231
1,1,0.5,0,1,0,0.5,-->,5.925380,23.865616,6.359787
1,1,0.5,0,1,0,1,-->,0.000000,12.954515,-8.153899
1,1,0.5,0,1,0.5,0,-->,9.022290,12.246051,10.476988
1,1,0.5,0,1,0.5,0.5,-->,3.319188,17.256174,-0.333995
1,1,0.5,0,1,0.5,1,-->,0.000000,10.235108,-9.024576
1,1,0.5,0,1,1,0,-->,2.561582,3.856907,-3.723261
1,1,0.5,0,1,1,0.5,-->,0.000000,3.321364,-7.727379
1,1,0.5,0,1,1,1,-->,0.000000,3.891774,-10.743505
1,1,0.5,0.5,0,0,0,-->,10.839188,5.167107,-17.156246
1,1,0.5,0.5,0,0,0.5,-->,3.281947,15.951400,-22.270712
1,1,0.5,0.5,0,0,1,-->,0.308178,20.973255,-22.272148
1,1,0.5,0.5,0,0.5,0,-->,6.720983,-1.587220,-17.288548
1,1,0.5,0.5,0,0.5,0.5,-->,1.526216,5.855341,-20.736521
1,1,0.5,0.5,0,0.5,1,-->,0.000000,14.010676,-22.666681
1,1,0.5,0.5,0,1,0,-->,4.154702,-8.380306,-15.666408
1,1,0.5,0.5,0,1,0.5,-->,1.163758,-0.711307,-19.640728
1,1,0.5,0.5,0,1,1,-->,0.000000,6.372038,-19.266098
1,1,0.5,0.5,0.5,0,0,-->,9.042208,13.768705,-1.964487
1,1,0.5,0.5,0.5,0,0.5,-->,2.185235,16.117588,-10.205409
1,1,0.5,0.5,0.5,0,1,-->,0.000000,15.803345,-17.674524
1,1,0.5,0.5,0.5,0.5,0,-->,4.697020,5.860631,-6.940001
1,1,0.5,0.5,0.5,0.5,0.5,-->,2.767723,11.411404,-20.231998
1,1,0.5,0.5,0.5,0.5,1,-->,0.000000,13.020708,-21.049646
1,1,0.5,0.5,0.5,1,0,-->,2.780702,-2.265218,-12.587341
1,1,0.5,0.5,0.5,1,0.5,-->,0.537200,0.097480,-18.238010
1,1,0.5,0.5,0.5,1,1,-->,0.000000,5.636595,-17.208319
1,1,0.5,0.5,1,0,0,-->,8.191866,13.550673,13.387753
1,1,0.5,0.5,1,0,0.5,-->,2.924548,12.781579,3.895270
1,1,0.5,0.5,1,0,1,-->,0.000000,7.090990,-5.351967
1,1,0.5,0.5,1,0.5,0,-->,5.011910,8.936460,6.350956
1,1,0.5,0.5,1,0.5,0.5,-->,1.763270,9.353085,1.064072
1,1,0.5,0.5,1,0.5,1,-->,0.000000,5.804576,-5.885550
1,1,0.5,0.5,1,1,0,-->,0.564882,2.021362,-2.956348
1,1,0.5,0.5,1,1,0.5,-->,0.000000,1.733703,-5.080692
1,1,0.5,0.5,1,1,1,-->,0.000000,2.485469,-7.245337
1,1,0.5,1,0,0,0,-->,0.566465,3.502599,2.101492
1,1,0.5,1,0,0,0.5,-->,0.000000,3.831570,-1.178438
1,1,0.5,1,0,0,1,-->,0.000000,4.201093,-2.754206
1,1,0.5,1,0,0.5,0,-->,0.000000,2.381431,-1.027153
1,1,0.5,1,0,0.5,0.5,-->,0.000000,2.693531,-1.505152
1,1,0.5,1,0,0.5,1,-->,0.000000,3.315634,-2.768904
1,1,0.5,1,0,1,0,-->,0.000000,-0.573009,-2.812130
1,1,0.5,1,0,1,0.5,-->,0.000000,-0.249517,-2.938588
1,1,0.5,1,0,1,1,-->,0.000000,0.240687,-2.702711
1,1,0.5,1,0.5,0,0,-->,0.028671,3.073222,0.618721
1,1,0.5,1,0.5,0,0.5,-->,0.000000,2.843045,-0.616479
1,1,0.5,1,0.5,0,1,-->,0.000000,3.282043,-2.641649
1,1,0.5,1,0.5,0.5,0,-->,0.000000,2.408987,-0.616927
1,1,0.5,1,0.5,0.5,0.5,-->,0.000000,2.371704,-1.080503
1,1,0.5,1,0.5,0.5,1,-->,0.000000,2.920607,-2.651110
1,1,0.5,1,0.5,1,0,-->,0.000000,-0.229971,-2.748263
1,1,0.5,1,0.5,1,0.5,-->,0.000000,-0.217630,-2.792835
1,1,0.5,1,0.5,1,1,-->,0.000000,0.196290,-2.624686
1,1,0.5,1,1,0,0,-->,1.443829,0.891303,5.524303
1,1,0.5,1,1,0,0.5,-->,0.797909,0.725039,3.847833
1,1,0.5,1,1,0,1,-->,0.000000,0.200606,-1.869781
1,1,0.5,1,1,0.5,0,-->,0.795236,0.708563,3.857530
1,1,0.5,1,1,0.5,0.5,-->,0.521678,0.601895,3.106417
1,1,0.5,1,1,0.5,1,-->,0.000000,0.150252,-1.908736
1,1,0.5,1,1,1,0,-->,0.000000,-0.159994,-1.684001
1,1,0.5,1,1,1,0.5,-->,0.000000,-0.198707,-1.788336
1,1,0.5,1,1,1,1,-->,0.000000,-0.190666,-2.173514
1,1,1,0,0,0,0,-->,18.683407,-3.143966,-0.159538
1,1,1,0,0,0,0.5,-->,9.628655,9.941429,-10.181129
1,1,1,0,0,0,1,-->,2.156830,21.404669,-20.284048
1,1,1,0,0,0.5,0,-->,15.262604,-16.850006,-2.448004
1,1,1,0,0,0.5,0.5,-->,6.707635,-1.854095,-11.095799
1,1,1,0,0,0.5,1,-->,0.000000,12.501884,-18.373062
1,1,1,0,0,1,0,-->,11.883084,-30.879377,-6.357978
1,1,1,0,0,1,0.5,-->,3.565748,-11.891834,-12.430964
1,1,1,0,0,1,1,-->,0.000000,3.575874,-12.552527
1,1,1,0,0.5,0,0,-->,16.386662,10.804911,15.665670
1,1,1,0,0.5,0,0.5,-->,7.542589,16.234529,1.810641
1,1,1,0,0.5,0,1,-->,0.000000,13.679896,-16.878855
1,1,1,0,0.5,0.5,0,-->,12.022589,-0.239197,7.099729
1,1,1,0,0.5,0.5,0.5,-->,6.081612,4.337596,-6.284992
1,1,1,0,0.5,0.5,1,-->,0.000000,10.849960,-16.745169
1,1,1,0,0.5,1,0,-->,7.614670,-11.946224,-6.866946
1,1,1,0,0.5,1,0.5,-->,2.336340,-7.633053,-12.040992
1,1,1,0,0.5,1,1,-->,0.000000,3.707119,-11.657615
1,1,1,0,1,0,0,-->,14.941255,19.715948,25.797659
1,1,1,0,1,0,0.5,-->,5.243101,19.894053,7.737882
1,1,1,0,1,0,1,-->,0.000000,5.276268,-9.852141
1,1,1,0,1,0.5,0,-->,9.648380,17.354588,12.078784
1,1,1,0,1,0.5,0.5,-->,3.766409,17.877409,4.111189
1,1,1,0,1,0.5,1,-->,0.000000,4.579750,-10.214346
1,1,1,0,1,1,0,-->,2.593060,10.287940,-6.365760
1,1,1,0,1,1,0.5,-->,0.000000,7.883308,-9.913098
1,1,1,0,1,1,1,-->,0.000000,3.883262,-10.638129
1,1,1,0.5,0,0,0,-->,10.313684,-3.154142,2.280721
1,1,1,0.5,0,0,0.5,-->,2.756420,4.164888,-6.901372
1,1,1,0.5,0,0,1,-->,0.253468,11.539623,-12.683750
1,1,1,0.5,0,0.5,0,-->,6.217070,-12.349087,-1.985021
1,1,1,0.5,0,0.5,0.5,-->,3.025954,-0.627818,-5.391493
1,1,1,0.5,0,0.5,1,-->,0.000000,6.747579,-10.911251
1,1,1,0.5,0,1,0,-->,5.593532,-17.614426,-5.236241
1,1,1,0.5,0,1,0.5,-->,1.212329,-6.615210,-7.804850
1,1,1,0.5,0,1,1,-->,0.000000,2.248544,-8.114350
1,1,1,0.5,0.5,0,0,-->,8.786622,6.120430,9.448702
1,1,1,0.5,0.5,0,0.5,-->,3.409575,6.454189,-0.595565
1,1,1,0.5,0.5,0,1,-->,0.000000,7.391249,-10.091590
1,1,1,0.5,0.5,0.5,0,-->,6.093794,0.517509,2.386599
1,1,1,0.5,0.5,0.5,0.5,-->,2.560652,2.126313,-3.557833
1,1,1,0.5,0.5,0.5,1,-->,0.000000,6.017334,-10.060431
1,1,1,0.5,0.5,1,0,-->,3.058804,-6.457130,-4.986602
1,1,1,0.5,0.5,1,0.5,-->,0.622644,-4.324753,-7.504833
1,1,1,0.5,0.5,1,1,-->,0.000000,2.350926,-7.683355
1,1,1,0.5,1,0,0,-->,7.968268,14.200104,14.702574
1,1,1,0.5,1,0,0.5,-->,2.117465,11.404610,3.377783
1,1,1,0.5,1,0,1,-->,0.000000,3.325635,-6.654226
1,1,1,0.5,1,0.5,0,-->,4.315970,11.392374,5.810246
1,1,1,0.5,1,0.5,0.5,-->,1.369144,9.801870,1.406677
1,1,1,0.5,1,0.5,1,-->,0.000000,2.919345,-6.896227
1,1,1,0.5,1,1,0,-->,0.551735,5.438838,-4.547923
1,1,1,0.5,1,1,0.5,-->,0.000000,4.155465,-6.450032
1,1,1,0.5,1,1,1,-->,0.000000,2.479770,-7.185498
1,1,1,1,0,0,0,-->,1.325409,0.225685,4.813224
1,1,1,1,0,0,0.5,-->,0.000000,0.484831,1.444021
1,1,1,1,0,0,1,-->,0.000000,0.525291,-2.105057
1,1,1,1,0,0.5,0,-->,0.044829,-0.426299,1.609692
1,1,1,1,0,0.5,0.5,-->,0.000000,-0.034707,0.872745
1,1,1,1,0,0.5,1,-->,0.000000,0.176105,-2.140342
1,1,1,1,0,1,0,-->,0.000000,-0.992218,-1.692604
1,1,1,1,0,1,0.5,-->,0.000000,-0.654781,-1.909056
1,1,1,1,0,1,1,-->,0.000000,-0.241249,-2.178986
1,1,1,1,0.5,0,0,-->,0.129366,0.162548,2.115309
1,1,1,1,0.5,0,0.5,-->,0.000000,0.081186,0.931186
1,1,1,1,0.5,0,1,-->,0.000000,0.189906,-2.137127
1,1,1,1,0.5,0.5,0,-->,0.000000,0.014629,0.990660
1,1,1,1,0.5,0.5,0.5,-->,0.000000,-0.013535,0.553911
1,1,1,1,0.5,0.5,1,-->,0.000000,0.135022,-2.140714
1,1,1,1,0.5,1,0,-->,0.000000,-0.569795,-1.847666
1,1,1,1,0.5,1,0.5,-->,0.000000,-0.557195,-1.935289
1,1,1,1,0.5,1,1,-->,0.000000,-0.218405,-2.173635
1,1,1,1,1,0,0,-->,0.000000,0.019463,-0.571983
1,1,1,1,1,0,0.5,-->,0.000000,-0.077767,-1.283761
1,1,1,1,1,0,1,-->,0.000000,-0.194557,-2.171204
1,1,1,1,1,0.5,0,-->,0.000000,-0.027640,-1.233741
1,1,1,1,1,0.5,0.5,-->,0.000000,-0.085518,-1.402056
1,1,1,1,1,0.5,1,-->,0.000000,-0.194557,-2.171204
1,1,1,1,1,1,0,-->,0.000000,-0.081718,-2.031128
1,1,1,1,1,1,0.5,-->,0.000000,-0.130325,-2.090747
1,1,1,1,1,1,1,-->,0.000000,-0.190666,-2.171204
-0.1,0.5,0.5,0.5,0.5,0.5,0.5,-->,19.661846,16.963696,18.079210
1.1,0.5,0.5,0.5,0.5,0.5,0.5,-->,11.439131,-10.215547,-12.411343
0.5,-0.1,0.5,0.5,0.5,0.5,0.5,-->,20.362808,-3.457032,11.939332
0.5,1.1,0.5,0.5,0.5,0.5,0.5,-->,9.713749,29.695900,0.441909
0.5,0.5,-0.1,0.5,0.5,0.5,0.5,-->,14.349237,10.478052,-3.797189
0.5,0.5,1.1,0.5,0.5,0.5,0.5,-->,21.137396,3.205287,28.796368
0.5,0.5,0.5,-0.1,0.5,0.5,0.5,-->,27.214569,11.378710,9.190134
0.5,0.5,0.5,1.1,0.5,0.5,0.5,-->,0.854563,0.147105,-0.038796
0.5,0.5,0.5,0.5,-0.1,0.5,0.5,-->,17.748625,0.034738,-3.243734
0.5,0.5,0.5,0.5,1.1,0.5,0.5,-->,15.496206,21.629936,28.400307
0.5,0.5,0.5,0.5,0.5,-0.1,0.5,-->,18.923567,20.003290,11.001877
0.5,0.5,0.5,0.5,0.5,1.1,0.5,-->,12.286225,-20.559906,1.058464
0.5,0.5,0.5,0.5,0.5,0.5,-0.1,-->,23.854151,2.070836,17.584066
0.5,0.5,0.5,0.5,0.5,0.5,1.1,-->,1.181930,21.105869,-16.273409
