0,0,0,0,0,0,0,-->,99.610893,-0.498055,-0.501945
0,0,0,0,0,0,0.5,-->,63.101727,15.151466,-22.157333
0,0,0,0,0,0,1,-->,23.618734,47.739292,-54.949413
0,0,0,0,0,0.5,0,-->,80.796257,-34.677929,1.219605
0,0,0,0,0,0.5,0.5,-->,50.444687,-10.357271,-17.490059
0,0,0,0,0,0.5,1,-->,20.760872,25.944954,-42.074245
0,0,0,0,0,1,0,-->,63.175816,-79.392998,3.645912
0,0,0,0,0,1,0.5,-->,39.844971,-39.699532,-12.071732
0,0,0,0,0,1,1,-->,19.017801,5.785987,-30.070036
0,0,0,0,0.5,0,0,-->,80.274269,34.247845,35.768372
0,0,0,0,0.5,0,0.5,-->,51.051128,33.216549,11.986631
0,0,0,0,0.5,0,1,-->,22.797354,36.717422,-16.283228
0,0,0,0,0.5,0.5,0,-->,61.635120,4.427378,25.798937
0,0,0,0,0.5,0.5,0.5,-->,38.656273,11.263014,6.692801
0,0,0,0,0.5,0.5,1,-->,18.491516,20.909145,-12.915826
0,0,0,0,0.5,1,0,-->,44.340759,-37.190216,15.074437
0,0,0,0,0.5,1,0.5,-->,28.166073,-14.906973,1.781565
0,0,0,0,0.5,1,1,-->,15.541612,6.354574,-10.108704
0,0,0,0,1,0,0,-->,68.381699,58.552525,92.739304
0,0,0,0,1,0,0.5,-->,44.858177,45.644314,54.366154
0,0,0,0,1,0,1,-->,23.504738,34.190662,20.260702
0,0,0,0,1,0.5,0,-->,49.883823,33.307957,62.647686
0,0,0,0,1,0.5,0.5,-->,32.357265,26.416571,34.419975
0,0,0,0,1,0.5,1,-->,18.117596,20.738657,12.399988
0,0,0,0,1,1,0,-->,31.864542,-0.758759,34.665363
0,0,0,0,1,1,0.5,-->,21.599167,3.990857,17.352978
0,0,0,0,1,1,1,-->,14.281589,8.101172,6.665367
0,0,0,0.5,0,0,0,-->,66.003960,-1.265826,-0.670649
0,0,0,0.5,0,0,0.5,-->,41.245426,10.457912,-15.363054
0,0,0,0.5,0,0,1,-->,17.284887,29.020054,-33.456020
0,0,0,0.5,0,0.5,0,-->,53.320724,-24.543407,0.757444
0,0,0,0.5,0,0.5,0.5,-->,33.623375,-5.837224,-11.318901
0,0,0,0.5,0,0.5,1,-->,15.752393,16.207323,-24.501564
0,0,0,0.5,0,1,0,-->,41.679993,-52.493931,2.519516
0,0,0,0.5,0,1,0.5,-->,26.852221,-22.657721,-7.410339
0,0,0,0.5,0,1,1,-->,14.745596,5.517387,-16.558416
0,0,0,0.5,0.5,0,0,-->,53.248215,21.851921,25.153990
0,0,0,0.5,0.5,0,0.5,-->,34.268944,21.179327,8.377251
0,0,0,0.5,0.5,0,1,-->,16.863350,22.529104,-8.270606
0,0,0,0.5,0.5,0.5,0,-->,41.177990,1.303201,17.586863
0,0,0,0.5,0.5,0.5,0.5,-->,26.672140,6.920652,5.028734
0,0,0,0.5,0.5,0.5,1,-->,14.594091,13.085426,-5.826850
0,0,0,0.5,0.5,1,0,-->,29.840681,-24.509939,10.823955
0,0,0,0.5,0.5,1,0.5,-->,20.275555,-7.977710,2.377829
0,0,0,0.5,0.5,1,1,-->,13.115920,5.520747,-3.674274
0,0,0,0.5,1,0,0,-->,45.636749,37.488007,58.297359
0,0,0,0.5,1,0,0.5,-->,30.257496,28.942051,32.176758
0,0,0,0.5,1,0,1,-->,17.164486,20.866907,11.544943
0,0,0,0.5,1,0.5,0,-->,33.729328,19.403286,38.019901
0,0,0,0.5,1,0.5,0.5,-->,22.849890,15.860205,20.076565
0,0,0,0.5,1,0.5,1,-->,14.410446,12.657904,7.628448
0,0,0,0.5,1,1,0,-->,22.394392,-2.599448,20.747700
0,0,0,0.5,1,1,0.5,-->,16.672836,2.489193,10.432119
0,0,0,0.5,1,1,1,-->,12.549850,6.033901,4.961614
0,0,0,1,0,0,0,-->,17.373198,-0.875488,0.914391
0,0,0,1,0,0,0.5,-->,14.336159,4.617748,-1.184108
0,0,0,1,0,0,1,-->,12.001642,8.326850,-1.902725
0,0,0,1,0,0.5,0,-->,16.256413,-5.637932,1.548576
0,0,0,1,0,0.5,0.5,-->,10.864958,0.799013,-0.638487
0,0,0,1,0,0.5,1,-->,11.009423,5.069513,0.914603
0,0,0,1,0,1,0,-->,14.416866,-8.793777,1.957191
0,0,0,1,0,1,0.5,-->,10.978069,1.472216,0.662038
0,0,0,1,0,1,1,-->,11.387576,5.326850,0.357979
0,0,0,1,0.5,0,0,-->,18.747023,1.375625,10.319661
0,0,0,1,0.5,0,0.5,-->,11.515119,5.284931,4.053904
0,0,0,1,0.5,0,1,-->,11.227404,4.960231,3.533134
0,0,0,1,0.5,0.5,0,-->,13.406031,-2.341244,6.934772
0,0,0,1,0.5,0.5,0.5,-->,9.932499,2.456135,3.677344
0,0,0,1,0.5,0.5,1,-->,11.042486,3.635090,4.997849
0,0,0,1,0.5,1,0,-->,11.758285,-4.777385,4.567150
0,0,0,1,0.5,1,0.5,-->,10.064038,3.916412,2.904070
0,0,0,1,0.5,1,1,-->,11.023139,4.714962,4.043203
0,0,0,1,1,0,0,-->,19.060358,2.431907,16.221792
0,0,0,1,1,0,0.5,-->,13.226107,3.489649,5.779118
0,0,0,1,1,0,1,-->,12.179478,7.120628,4.747077
0,0,0,1,1,0.5,0,-->,14.426554,-1.687786,7.765757
0,0,0,1,1,0.5,0.5,-->,11.556613,0.243711,2.702255
0,0,0,1,1,0.5,1,-->,11.232023,4.227250,3.367524
0,0,0,1,1,1,0,-->,13.626485,-4.704277,7.459144
0,0,0,1,1,1,0.5,-->,11.914173,0.276861,3.587821
0,0,0,1,1,1,1,-->,11.335897,4.509727,3.918281
0,0,0.5,0,0,0,0,-->,96.111450,-5.598316,45.705978
0,0,0.5,0,0,0,0.5,-->,61.152313,8.331638,15.296543
0,0,0.5,0,0,0,1,-->,24.825497,33.045330,-22.850393
0,0,0.5,0,0,0.5,0,-->,78.345352,-37.848286,37.973576
0,0,0.5,0,0,0.5,0.5,-->,49.162109,-15.512857,12.240701
0,0,0.5,0,0,0.5,1,-->,21.394899,14.165496,-16.868975
0,0,0.5,0,0,1,0,-->,62.414902,-78.600388,31.278196
0,0,0.5,0,0,1,0.5,-->,39.432922,-42.811306,10.025420
0,0,0.5,0,0,1,1,-->,19.319874,-3.250908,-11.393209
0,0,0.5,0,0.5,0,0,-->,79.207787,32.173412,66.646408
0,0,0.5,0,0.5,0,0.5,-->,51.167591,31.331682,36.320950
0,0,0.5,0,0.5,0,1,-->,24.912460,33.481121,4.841829
0,0,0.5,0,0.5,0.5,0,-->,61.504734,3.203114,50.166466
0,0,0.5,0,0.5,0.5,0.5,-->,39.125763,10.031818,25.077431
0,0,0.5,0,0.5,0.5,1,-->,20.111975,17.614069,3.042367
0,0,0.5,0,0.5,1,0,-->,45.667912,-34.974842,34.403786
0,0,0.5,0,0.5,1,0.5,-->,29.401154,-15.214620,16.206215
0,0,0.5,0,0.5,1,1,-->,16.228889,3.296787,0.991086
0,0,0.5,0,1,0,0,-->,69.229927,56.316391,97.399559
0,0,0.5,0,1,0,0.5,-->,46.148483,45.174065,58.806976
0,0,0.5,0,1,0,1,-->,25.950062,36.005234,26.276220
0,0,0.5,0,1,0.5,0,-->,51.540005,31.177092,67.497337
0,0,0.5,0,1,0.5,0.5,-->,34.191811,25.970337,38.737061
0,0,0.5,0,1,0.5,1,-->,19.739460,22.069939,17.546099
0,0,0.5,0,1,1,0,-->,35.377537,-0.718390,41.970184
0,0,0.5,0,1,1,0.5,-->,23.635330,4.499893,23.120596
0,0,0.5,0,1,1,1,-->,11.489358,9.633767,12.770348
0,0,0.5,0.5,0,0,0,-->,62.877403,-5.049055,28.542557
0,0,0.5,0.5,0,0,0.5,-->,40.041496,5.584629,8.647812
0,0,0.5,0.5,0,0,1,-->,17.959948,20.674744,-12.739508
0,0,0.5,0.5,0,0.5,0,-->,51.581429,-26.744804,24.230076
0,0,0.5,0.5,0,0.5,0.5,-->,32.749252,-9.328157,7.281572
0,0,0.5,0.5,0,0.5,1,-->,16.074871,9.660898,-8.698698
0,0,0.5,0.5,0,1,0,-->,41.317280,-52.367687,21.007925
0,0,0.5,0.5,0,1,0.5,-->,26.678423,-24.866444,6.762353
0,0,0.5,0.5,0,1,1,-->,14.647187,0.727638,-5.228550
0,0,0.5,0.5,0.5,0,0,-->,52.492004,20.167198,43.026787
0,0,0.5,0.5,0.5,0,0.5,-->,34.217186,19.901926,22.167242
0,0,0.5,0.5,0.5,0,1,-->,17.995554,20.915438,3.843790
0,0,0.5,0.5,0.5,0.5,0,-->,41.033894,0.513877,31.674150
0,0,0.5,0.5,0.5,0.5,0.5,-->,29.956726,4.409929,19.400246
0,0,0.5,0.5,0.5,0.5,1,-->,15.193613,12.498038,1.763143
0,0,0.5,0.5,0.5,1,0,-->,30.779161,-23.384417,22.457943
0,0,0.5,0.5,0.5,1,0.5,-->,23.305681,-14.059436,14.175877
0,0,0.5,0.5,0.5,1,1,-->,14.104859,3.784787,1.885725
0,0,0.5,0.5,1,0,0,-->,46.266399,36.232220,61.013138
0,0,0.5,0.5,1,0,0.5,-->,31.118107,28.852451,34.724506
0,0,0.5,0.5,1,0,1,-->,18.305025,22.501427,15.351594
0,0,0.5,0.5,1,0.5,0,-->,34.851368,18.366261,40.945896
0,0,0.5,0.5,1,0.5,0.5,-->,25.799206,16.605011,27.045954
0,0,0.5,0.5,1,0.5,1,-->,16.110929,11.202049,10.934103
0,0,0.5,0.5,1,1,0,-->,24.496180,-2.376066,25.033247
0,0,0.5,0.5,1,1,0.5,-->,17.094622,4.092966,12.481183
0,0,0.5,0.5,1,1,1,-->,12.533598,6.101750,7.573822
0,0,0.5,1,0,0,0,-->,16.942492,-2.687132,4.343235
0,0,0.5,1,0,0,0.5,-->,11.748575,2.407118,1.996542
0,0,0.5,1,0,0,1,-->,11.133554,5.262239,1.818149
0,0,0.5,1,0,0.5,0,-->,15.781602,-7.186197,4.915196
0,0,0.5,1,0,0.5,0.5,-->,10.161643,0.067705,2.446225
0,0,0.5,1,0,0.5,1,-->,10.900357,4.082767,3.572439
0,0,0.5,1,0,1,0,-->,14.857046,-10.488113,5.832862
0,0,0.5,1,0,1,0.5,-->,10.899550,0.886363,3.008017
0,0,0.5,1,0,1,1,-->,10.219788,5.346123,2.713442
0,0,0.5,1,0.5,0,0,-->,18.130947,1.379805,11.649955
0,0,0.5,1,0.5,0,0.5,-->,10.895933,5.083891,5.961994
0,0,0.5,1,0.5,0,1,-->,11.139224,4.271936,5.560204
0,0,0.5,1,0.5,0.5,0,-->,12.890265,-2.452784,9.106462
0,0,0.5,1,0.5,0.5,0.5,-->,13.366610,-0.437942,2.399518
0,0,0.5,1,0.5,0.5,1,-->,11.278467,3.829518,0.402680
0,0,0.5,1,0.5,1,0,-->,11.640246,-4.747785,6.659013
0,0,0.5,1,0.5,1,0.5,-->,12.238268,-4.095884,2.134171
0,0,0.5,1,0.5,1,1,-->,10.959014,2.636367,0.771442
0,0,0.5,1,1,0,0,-->,19.232103,3.354544,16.789938
0,0,0.5,1,1,0,0.5,-->,13.181168,3.935183,5.715023
0,0,0.5,1,1,0,1,-->,10.966113,6.261524,5.119427
0,0,0.5,1,1,0.5,0,-->,14.285138,-1.439842,7.526704
0,0,0.5,1,1,0.5,0.5,-->,14.569169,0.787796,7.907824
0,0,0.5,1,1,0.5,1,-->,11.366055,3.524121,2.880359
0,0,0.5,1,1,1,0,-->,12.684527,-4.834587,5.745877
0,0,0.5,1,1,1,0.5,-->,12.206081,-2.899435,4.212705
0,0,0.5,1,1,1,1,-->,11.013699,2.009477,2.279855
0,0,1,0,0,0,0,-->,93.301521,-6.163421,98.455246
0,0,1,0,0,0,0.5,-->,59.882927,6.316591,57.253601
0,0,1,0,0,0,1,-->,27.242327,25.412451,12.743186
0,0,1,0,0,0.5,0,-->,76.670334,-36.866642,77.078491
0,0,1,0,0,0.5,0.5,-->,48.477760,-16.654408,43.061745
0,0,1,0,0,0.5,1,-->,23.085077,7.488813,9.344648
0,0,1,0,0,1,0,-->,62.541992,-74.373543,59.054478
0,0,1,0,0,1,0.5,-->,39.611217,-42.237400,31.780287
0,0,1,0,0,1,1,-->,20.621363,-9.365760,7.299613
0,0,1,0,0.5,0,0,-->,78.612816,31.787718,97.267006
0,0,1,0,0.5,0,0.5,-->,51.449238,31.182243,59.438423
0,0,1,0,0.5,0,1,-->,27.516703,33.434505,24.536339
0,0,1,0,0.5,0.5,0,-->,61.848156,3.568578,72.456543
0,0,1,0,0.5,0.5,0.5,-->,40.023773,10.055803,42.542858
0,0,1,0,0.5,0.5,1,-->,21.777018,17.489496,17.121008
0,0,1,0,0.5,1,0,-->,47.572411,-31.421593,51.765266
0,0,1,0,0.5,1,0.5,-->,31.139505,-15.197733,29.874735
0,0,1,0,0.5,1,1,-->,18.201654,2.597335,11.210030
0,0,1,0,1,0,0,-->,70.172211,54.015568,101.077820
0,0,1,0,1,0,0.5,-->,47.329361,44.566723,62.301296
0,0,1,0,1,0,1,-->,28.522141,37.700382,31.957205
0,0,1,0,1,0.5,0,-->,53.327526,29.006405,71.678833
0,0,1,0,1,0.5,0.5,-->,36.255604,26.275978,44.296436
0,0,1,0,1,0.5,1,-->,22.083134,23.120445,21.403149
0,0,1,0,1,1,0,-->,38.816864,-0.832687,48.513615
0,0,1,0,1,1,0.5,-->,26.489248,4.541509,27.246429
0,0,1,0,1,1,1,-->,17.779028,9.206229,14.186774
0,0,1,0.5,0,0,0,-->,60.629642,-6.194504,62.890266
0,0,1,0.5,0,0,0.5,-->,39.050030,3.634680,34.802856
0,0,1,0.5,0,0,1,-->,19.173698,16.146223,7.796657
0,0,1,0.5,0,0.5,0,-->,50.317745,-26.901318,49.167332
0,0,1,0.5,0,0.5,0.5,-->,32.205242,-10.781100,26.130415
0,0,1,0.5,0,0.5,1,-->,16.628042,5.800563,6.181121
0,0,1,0.5,0,1,0,-->,41.529621,-50.222549,38.369026
0,0,1,0.5,0,1,0.5,-->,27.045595,-26.509672,20.445267
0,0,1,0.5,0,1,1,-->,15.559769,-2.749434,5.073161
0,0,1,0.5,0.5,0,0,-->,51.921093,19.610998,61.529968
0,0,1,0.5,0.5,0,0.5,-->,34.265808,19.663921,35.653419
0,0,1,0.5,0.5,0,1,-->,19.087378,21.145872,14.565857
0,0,1,0.5,0.5,0.5,0,-->,41.179501,0.422150,45.135551
0,0,1,0.5,0.5,0.5,0.5,-->,29.892004,3.808756,30.012606
0,0,1,0.5,0.5,0.5,1,-->,16.621218,9.013094,10.264609
0,0,1,0.5,0.5,1,0,-->,32.010216,-21.605953,32.525364
0,0,1,0.5,0.5,1,0.5,-->,24.272429,-13.350667,19.976843
0,0,1,0.5,0.5,1,1,-->,15.385374,1.239273,7.069468
0,0,1,0.5,1,0,0,-->,46.933945,34.933052,63.185238
0,0,1,0.5,1,0,0.5,-->,32.087761,29.272192,37.976582
0,0,1,0.5,1,0,1,-->,19.975203,23.861982,18.108271
0,0,1,0.5,1,0.5,0,-->,36.002289,17.228815,43.501076
0,0,1,0.5,1,0.5,0.5,-->,27.195251,16.527388,29.296421
0,0,1,0.5,1,0.5,1,-->,17.941687,15.558622,14.331593
0,0,1,0.5,1,1,0,-->,26.520618,-2.298831,28.828909
0,0,1,0.5,1,1,0.5,-->,21.387705,1.218937,19.661474
0,0,1,0.5,1,1,1,-->,14.869930,5.115460,8.571496
0,0,1,1,0,0,0,-->,16.718092,-4.260704,7.630348
0,0,1,1,0,0,0.5,-->,11.847697,1.089485,2.816493
0,0,1,1,0,0,1,-->,12.095881,6.540855,3.501945
0,0,1,1,0,0.5,0,-->,16.359413,-8.363739,7.335438
0,0,1,1,0,0.5,0.5,-->,10.545333,-1.622209,1.236036
0,0,1,1,0,0.5,1,-->,10.306901,4.775804,3.342840
0,0,1,1,0,1,0,-->,15.499081,-11.797668,8.385215
0,0,1,1,0,1,0.5,-->,10.941979,-2.494999,4.283974
0,0,1,1,0,1,1,-->,11.471174,3.595329,3.338524
0,0,1,1,0.5,0,0,-->,18.766014,1.443976,12.691965
0,0,1,1,0.5,0,0.5,-->,11.415823,5.067963,3.204269
0,0,1,1,0.5,0,1,-->,10.760904,6.462929,4.753507
0,0,1,1,0.5,0.5,0,-->,13.440855,-2.726331,6.303383
0,0,1,1,0.5,0.5,0.5,-->,13.395093,-1.940108,4.231233
0,0,1,1,0.5,0.5,1,-->,11.248971,3.351321,2.330620
0,0,1,1,0.5,1,0,-->,12.360389,-5.504810,6.131602
0,0,1,1,0.5,1,0.5,-->,12.867520,-5.996990,4.682739
0,0,1,1,0.5,1,1,-->,11.095207,1.570615,2.005327
0,0,1,1,1,0,0,-->,19.558907,4.171211,17.498053
0,0,1,1,1,0,0.5,-->,13.269347,5.962632,7.583777
0,0,1,1,1,0,1,-->,12.542748,7.583656,5.918281
0,0,1,1,1,0.5,0,-->,14.663424,-0.644202,8.010434
0,0,1,1,1,0.5,0.5,-->,14.949224,1.766533,8.845249
0,0,1,1,1,0.5,1,-->,11.695286,3.816736,3.458931
0,0,1,1,1,1,0,-->,14.240549,-4.112839,8.723731
0,0,1,1,1,1,0.5,-->,12.712309,-2.711223,5.192991
0,0,1,1,1,1,1,-->,10.650393,-0.821014,0.428017
0,0.5,0,0,0,0,0,-->,74.029190,35.679165,-5.365046
0,0.5,0,0,0,0,0.5,-->,47.641232,36.978516,-20.477884
0,0.5,0,0,0,0,1,-->,21.830105,45.062977,-39.715813
0,0.5,0,0,0,0.5,0,-->,57.827122,1.590997,-6.658405
0,0.5,0,0,0,0.5,0.5,-->,36.907028,12.202688,-18.408606
0,0.5,0,0,0,0.5,1,-->,18.178463,27.078691,-31.874271
0,0.5,0,0,0,1,0,-->,43.060230,-44.378700,-7.619237
0,0.5,0,0,0,1,0.5,-->,27.919758,-16.377949,-16.165815
0,0.5,0,0,0,1,1,-->,15.746299,10.728945,-24.739956
0,0.5,0,0,0.5,0,0,-->,63.079525,54.997936,30.618217
0,0.5,0,0,0.5,0,0.5,-->,41.303013,45.853439,11.754145
0,0.5,0,0,0.5,0,1,-->,21.974209,38.126553,-7.219590
0,0.5,0,0,0.5,0.5,0,-->,46.657291,25.669287,18.687344
0,0.5,0,0,0.5,0.5,0.5,-->,30.632988,23.594248,5.040498
0,0.5,0,0,0.5,0.5,1,-->,17.387367,22.972252,-7.088132
0,0.5,0,0,0.5,1,0,-->,31.141079,-14.765787,6.085077
0,0.5,0,0,0.5,1,0.5,-->,20.865406,-0.876803,-1.973728
0,0.5,0,0,0.5,1,1,-->,13.588741,10.083770,-7.681729
0,0.5,0,0,1,0,0,-->,57.206154,66.544258,75.015533
0,0.5,0,0,1,0,0.5,-->,38.681446,51.109833,44.409321
0,0.5,0,0,1,0,1,-->,23.020748,37.529743,19.682556
0,0.5,0,0,1,0.5,0,-->,40.708759,41.187973,47.832722
0,0.5,0,0,1,0.5,0.5,-->,27.625751,31.654726,26.440554
0,0.5,0,0,1,0.5,1,-->,17.257423,23.695581,11.829958
0,0.5,0,0,1,1,0,-->,24.611464,8.014841,22.744766
0,0.5,0,0,1,1,0.5,-->,17.450848,9.847696,11.375169
0,0.5,0,0,1,1,1,-->,9.795497,12.445008,6.633874
0,0.5,0,0.5,0,0,0,-->,49.082993,22.043993,-3.856124
0,0.5,0,0.5,0,0,0.5,-->,31.895292,23.442774,-13.279467
0,0.5,0,0.5,0,0,1,-->,16.234825,27.322777,-23.307076
0,0.5,0,0.5,0,0.5,0,-->,38.472904,-0.208814,-4.464358
0,0.5,0,0.5,0,0.5,0.5,-->,25.579166,7.703653,-11.045567
0,0.5,0,0.5,0,0.5,1,-->,14.355553,16.528330,-17.578556
0,0.5,0,0.5,0,1,0,-->,28.485394,-27.332670,-4.816181
0,0.5,0,0.5,0,1,0.5,-->,19.849936,-7.962693,-9.080198
0,0.5,0,0.5,0,1,1,-->,12.770041,8.143715,-12.930296
0,0.5,0,0.5,0.5,0,0,-->,42.345200,34.565735,20.671598
0,0.5,0,0.5,0.5,0,0.5,-->,28.505945,28.209511,8.024812
0,0.5,0,0.5,0.5,0,1,-->,16.406435,23.359802,-2.957792
0,0.5,0,0.5,0.5,0.5,0,-->,31.889265,14.319554,12.580145
0,0.5,0,0.5,0.5,0.5,0.5,-->,23.490614,15.667296,4.832421
0,0.5,0,0.5,0.5,0.5,1,-->,13.704345,15.049967,-3.939796
0,0.5,0,0.5,0.5,1,0,-->,21.778179,-9.966918,5.107329
0,0.5,0,0.5,0.5,1,0.5,-->,17.473515,-2.701131,2.122756
0,0.5,0,0.5,0.5,1,1,-->,12.834493,6.973530,-2.349619
0,0.5,0,0.5,1,0,0,-->,38.549744,42.339661,46.882454
0,0.5,0,0.5,1,0,0.5,-->,26.696426,31.966036,26.410156
0,0.5,0,0.5,1,0,1,-->,16.951824,22.871710,11.429126
0,0.5,0,0.5,1,0.5,0,-->,28.149826,24.029053,28.849199
0,0.5,0,0.5,1,0.5,0.5,-->,21.234745,21.068068,18.690641
0,0.5,0,0.5,1,0.5,1,-->,14.920587,10.935380,8.312548
0,0.5,0,0.5,1,1,0,-->,17.968893,2.859263,14.306665
0,0.5,0,0.5,1,1,0.5,-->,13.206212,9.061016,5.526431
0,0.5,0,0.5,1,1,1,-->,11.437796,7.534380,4.431695
0,0.5,0,1,0,0,0,-->,15.608056,4.181470,2.792174
0,0.5,0,1,0,0,0.5,-->,13.104195,6.368831,0.583185
0,0.5,0,1,0,0,1,-->,11.779283,8.334389,-0.180452
0,0.5,0,1,0,0.5,0,-->,12.044021,-1.139042,1.066565
0,0.5,0,1,0,0.5,0.5,-->,9.617722,3.080092,0.110475
0,0.5,0,1,0,0.5,1,-->,10.932001,4.416800,2.664607
0,0.5,0,1,0,1,0,-->,11.087613,-3.418396,0.756349
0,0.5,0,1,0,1,0.5,-->,9.599697,4.705934,0.392572
0,0.5,0,1,0,1,1,-->,9.940851,6.231734,1.735922
0,0.5,0,1,0.5,0,0,-->,17.275770,4.442364,10.537633
0,0.5,0,1,0.5,0,0.5,-->,10.517929,6.437425,4.559626
0,0.5,0,1,0.5,0,1,-->,11.169899,4.900711,5.049268
0,0.5,0,1,0.5,0.5,0,-->,11.486614,0.389107,6.504255
0,0.5,0,1,0.5,0.5,0.5,-->,13.154902,0.383635,1.584006
0,0.5,0,1,0.5,0.5,1,-->,11.281154,4.089683,0.006817
0,0.5,0,1,0.5,1,0,-->,10.251864,-1.105627,3.884919
0,0.5,0,1,0.5,1,0.5,-->,11.984333,-3.339892,1.365730
0,0.5,0,1,0.5,1,1,-->,10.931753,2.818164,0.427804
0,0.5,0,1,1,0,0,-->,18.390583,4.949105,15.246507
0,0.5,0,1,1,0,0.5,-->,12.548632,3.983775,4.712044
0,0.5,0,1,1,0,1,-->,11.457832,5.489406,3.594326
0,0.5,0,1,1,0.5,0,-->,13.645334,-1.066641,6.380048
0,0.5,0,1,1,0.5,0.5,-->,14.481750,1.034343,7.603765
0,0.5,0,1,1,0.5,1,-->,11.409881,3.592183,2.549047
0,0.5,0,1,1,1,0,-->,11.539308,-3.401387,6.178233
0,0.5,0,1,1,1,0.5,-->,12.050379,-2.620940,4.099304
0,0.5,0,1,1,1,1,-->,11.002038,2.114837,2.039130
0,0.5,0.5,0,0,0,0,-->,71.653214,32.243816,30.800669
0,0.5,0.5,0,0,0,0.5,-->,46.557999,32.520546,9.418198
0,0.5,0.5,0,0,0,1,-->,22.880146,37.011906,-13.989345
0,0.5,0.5,0,0,0.5,0,-->,56.208134,-0.640258,22.367325
0,0.5,0.5,0,0,0.5,0.5,-->,36.092213,8.616045,4.965596
0,0.5,0.5,0,0,0.5,1,-->,18.654631,20.284002,-11.871035
0,0.5,0.5,0,0,1,0,-->,42.546402,-44.300430,14.619526
0,0.5,0.5,0,0,1,0.5,-->,27.715891,-19.365152,1.698061
0,0.5,0.5,0,0,1,1,-->,15.632300,5.224803,-10.170656
0,0.5,0.5,0,0.5,0,0,-->,62.079830,53.976887,53.975048
0,0.5,0.5,0,0.5,0,0.5,-->,41.586601,44.415794,30.011724
0,0.5,0.5,0,0.5,0,1,-->,23.544252,36.828117,9.016878
0,0.5,0.5,0,0.5,0.5,0,-->,46.616428,24.945911,36.827843
0,0.5,0.5,0,0.5,0.5,0.5,-->,34.564865,23.867378,22.633249
0,0.5,0.5,0,0.5,0.5,1,-->,17.363266,24.707438,1.776716
0,0.5,0.5,0,0.5,1,0,-->,32.196556,-12.974123,21.048309
0,0.5,0.5,0,0.5,1,0.5,-->,25.193283,-5.914421,14.114487
0,0.5,0.5,0,0.5,1,1,-->,14.986810,10.105839,0.842742
0,0.5,0.5,0,1,0,0,-->,57.657780,65.385971,78.816200
0,0.5,0.5,0,1,0,0.5,-->,39.677067,51.322380,48.233086
0,0.5,0.5,0,1,0,1,-->,24.557854,39.426800,24.803207
0,0.5,0.5,0,1,0.5,0,-->,41.783669,40.531490,51.639069
0,0.5,0.5,0,1,0.5,0.5,-->,30.723806,35.231308,34.493996
0,0.5,0.5,0,1,0.5,1,-->,18.627737,23.687769,14.349679
0,0.5,0.5,0,1,1,0,-->,26.711243,9.804059,28.524469
0,0.5,0.5,0,1,1,0.5,-->,19.041027,14.562377,15.089651
0,0.5,0.5,0,1,1,1,-->,10.741186,7.686372,-0.493586
0,0.5,0.5,0.5,0,0,0,-->,47.074352,19.097008,19.618217
0,0.5,0.5,0.5,0,0,0.5,-->,31.313961,19.980003,5.658998
0,0.5,0.5,0.5,0,0,1,-->,16.805988,22.893658,-7.259792
0,0.5,0.5,0.5,0,0.5,0,-->,37.368610,-2.123471,13.876042
0,0.5,0.5,0.5,0,0.5,0.5,-->,26.949135,6.529562,5.791322
0,0.5,0.5,0.5,0,0.5,1,-->,14.390805,13.633828,-5.630059
0,0.5,0.5,0.5,0,1,0,-->,28.379223,-27.914890,9.614921
0,0.5,0.5,0.5,0,1,0.5,-->,20.858517,-11.797493,4.036151
0,0.5,0.5,0.5,0,1,1,-->,13.414450,5.345865,-3.241652
0,0.5,0.5,0.5,0.5,0,0,-->,41.839066,33.387722,34.280384
0,0.5,0.5,0.5,0.5,0,0.5,-->,29.580065,30.719671,20.463247
0,0.5,0.5,0.5,0.5,0,1,-->,16.271942,24.068813,4.083010
0,0.5,0.5,0.5,0.5,0.5,0,-->,34.030602,12.357704,26.732197
0,0.5,0.5,0.5,0.5,0.5,0.5,-->,23.963600,14.582135,15.318886
0,0.5,0.5,0.5,0.5,0.5,1,-->,13.495395,13.777491,2.180057
0,0.5,0.5,0.5,0.5,1,0,-->,25.351679,-13.863769,18.103529
0,0.5,0.5,0.5,0.5,1,0.5,-->,18.257120,-4.503039,9.945320
0,0.5,0.5,0.5,0.5,1,1,-->,12.685691,5.700112,-5.552711
0,0.5,0.5,0.5,1,0,0,-->,38.915604,41.883110,48.978542
0,0.5,0.5,0.5,1,0,0.5,-->,27.180189,37.292652,29.678164
0,0.5,0.5,0.5,1,0,1,-->,17.471304,20.303747,12.971205
0,0.5,0.5,0.5,1,0.5,0,-->,29.958460,24.302120,34.356609
0,0.5,0.5,0.5,1,0.5,0.5,-->,21.474693,21.458961,20.224756
0,0.5,0.5,0.5,1,0.5,1,-->,14.605392,14.075303,6.697999
0,0.5,0.5,0.5,1,1,0,-->,18.850554,5.692497,15.383057
0,0.5,0.5,0.5,1,1,0.5,-->,16.247610,4.132590,9.596925
0,0.5,0.5,0.5,1,1,1,-->,10.871778,5.247450,0.406023
0,0.5,0.5,1,0,0,0,-->,15.576696,1.769086,5.150434
0,0.5,0.5,1,0,0,0.5,-->,10.125451,4.844018,2.495425
0,0.5,0.5,1,0,0,1,-->,11.076827,4.955291,3.648693
0,0.5,0.5,1,0,0.5,0,-->,11.631202,-2.736317,4.766457
0,0.5,0.5,1,0,0.5,0.5,-->,13.216014,-0.018307,1.355304
0,0.5,0.5,1,0,0.5,1,-->,11.280657,4.386872,-0.045605
0,0.5,0.5,1,0,1,0,-->,10.974038,-4.251592,3.572469
0,0.5,0.5,1,0,1,0.5,-->,12.159486,-3.712211,1.519622
0,0.5,0.5,1,0,1,1,-->,10.933382,3.082980,0.538165
0,0.5,0.5,1,0.5,0,0,-->,17.082680,4.268349,11.606469
0,0.5,0.5,1,0.5,0,0.5,-->,14.231256,1.946233,3.052277
0,0.5,0.5,1,0.5,0,1,-->,11.647403,5.377069,0.763478
0,0.5,0.5,1,0.5,0.5,0,-->,14.238956,-0.282606,2.799089
0,0.5,0.5,1,0.5,0.5,0.5,-->,13.896392,-0.276101,1.190742
0,0.5,0.5,1,0.5,0.5,1,-->,11.342368,4.100520,-0.603757
0,0.5,0.5,1,0.5,1,0,-->,12.570049,-4.357910,2.133608
0,0.5,0.5,1,0.5,1,0.5,-->,12.455699,-4.413136,1.246706
0,0.5,0.5,1,0.5,1,1,-->,11.002352,2.523893,0.260476
0,0.5,0.5,1,1,0,0,-->,18.294243,5.846602,15.290433
0,0.5,0.5,1,1,0,0.5,-->,15.499941,3.083877,9.696890
0,0.5,0.5,1,1,0,1,-->,11.778667,4.941262,3.474252
0,0.5,0.5,1,1,0.5,0,-->,15.388659,1.341108,9.321546
0,0.5,0.5,1,1,0.5,0.5,-->,14.939117,1.217310,8.367402
0,0.5,0.5,1,1,0.5,1,-->,11.444279,3.514165,2.522115
0,0.5,0.5,1,1,1,0,-->,12.433392,-2.632354,4.633084
0,0.5,0.5,1,1,1,0.5,-->,12.171264,-2.593019,3.905620
0,0.5,0.5,1,1,1,1,-->,10.992326,2.039434,1.993791
0,0.5,1,0,0,0,0,-->,69.384743,32.495300,71.313759
0,0.5,1,0,0,0,0.5,-->,45.922405,31.534729,41.204357
0,0.5,1,0,0,0,1,-->,24.641441,34.216534,11.758005
0,0.5,1,0,0,0.5,0,-->,55.028500,0.249350,52.083267
0,0.5,1,0,0,0.5,0.5,-->,35.803612,8.095351,28.221094
0,0.5,1,0,0,0.5,1,-->,19.548292,17.863365,6.920470
0,0.5,1,0,0,1,0,-->,42.830971,-41.061790,35.786503
0,0.5,1,0,0,1,0.5,-->,27.871721,-19.662424,18.195179
0,0.5,1,0,0,1,1,-->,16.596340,2.343220,3.071109
0,0.5,1,0,0.5,0,0,-->,61.828697,53.880859,76.018532
0,0.5,1,0,0.5,0,0.5,-->,41.664230,45.898033,46.825382
0,0.5,1,0,0.5,0,1,-->,25.109694,39.038750,22.616348
0,0.5,1,0,0.5,0.5,0,-->,46.815403,25.854885,53.065788
0,0.5,1,0,0.5,0.5,0.5,-->,34.439693,23.903841,36.242416
0,0.5,1,0,0.5,0.5,1,-->,19.072050,21.767899,12.834898
0,0.5,1,0,0.5,1,0,-->,33.676197,-9.985188,33.962875
0,0.5,1,0,0.5,1,0.5,-->,26.066362,-3.915735,21.625498
0,0.5,1,0,0.5,1,1,-->,14.294889,-1.034776,-0.364150
0,0.5,1,0,1,0,0,-->,58.071053,64.338310,81.369736
0,0.5,1,0,1,0,0.5,-->,40.319939,52.202003,51.463367
0,0.5,1,0,1,0,1,-->,26.633974,41.599522,28.871679
0,0.5,1,0,1,0.5,0,-->,42.759518,40.129517,55.117859
0,0.5,1,0,1,0.5,0.5,-->,31.953447,35.305416,36.820305
0,0.5,1,0,1,0.5,1,-->,18.904444,24.101416,13.350820
0,0.5,1,0,1,1,0,-->,29.376961,10.862774,33.070698
0,0.5,1,0,1,1,0.5,-->,24.104946,4.037504,21.816963
0,0.5,1,0,1,1,1,-->,12.688094,7.907216,2.750802
0,0.5,1,0.5,0,0,0,-->,45.415642,18.110825,45.100090
0,0.5,1,0.5,0,0,0.5,-->,30.738058,18.780226,25.028276
0,0.5,1,0.5,0,0,1,-->,17.440407,21.487352,7.338827
0,0.5,1,0.5,0,0.5,0,-->,36.581509,-2.417271,32.484692
0,0.5,1,0.5,0,0.5,0.5,-->,26.403173,5.384790,20.687147
0,0.5,1,0.5,0,0.5,1,-->,15.642078,9.021970,5.999551
0,0.5,1,0.5,0,1,0,-->,28.637526,-26.821453,22.766014
0,0.5,1,0.5,0,1,0.5,-->,21.425928,-11.590359,12.593839
0,0.5,1,0.5,0,1,1,-->,14.183720,0.320118,3.839413
0,0.5,1,0.5,0.5,0,0,-->,41.440830,33.065407,47.451344
0,0.5,1,0.5,0.5,0,0.5,-->,29.283703,30.250776,30.146891
0,0.5,1,0.5,0.5,0,1,-->,17.724464,20.703228,11.980810
0,0.5,1,0.5,0.5,0.5,0,-->,33.810467,11.839716,36.877758
0,0.5,1,0.5,0.5,0.5,0.5,-->,23.694183,13.897245,22.065210
0,0.5,1,0.5,0.5,0.5,1,-->,15.257099,12.252283,5.093041
0,0.5,1,0.5,0.5,1,0,-->,26.472134,-12.984169,23.548819
0,0.5,1,0.5,0.5,1,0.5,-->,23.575567,-14.387586,16.171347
0,0.5,1,0.5,0.5,1,1,-->,12.776698,0.096401,0.469176
0,0.5,1,0.5,1,0,0,-->,39.228745,41.430752,50.403393
0,0.5,1,0.5,1,0,0.5,-->,28.284206,37.602547,31.356503
0,0.5,1,0.5,1,0,1,-->,19.337841,21.758369,16.790850
0,0.5,1,0.5,1,0.5,0,-->,31.303343,24.056957,36.315678
0,0.5,1,0.5,1,0.5,0.5,-->,27.293400,21.486593,28.545033
0,0.5,1,0.5,1,0.5,1,-->,15.561290,15.214984,8.590648
0,0.5,1,0.5,1,1,0,-->,21.504229,6.410431,19.945486
0,0.5,1,0.5,1,1,0.5,-->,18.939053,1.526568,14.094637
0,0.5,1,0.5,1,1,1,-->,11.855516,4.421177,1.727516
0,0.5,1,1,0,0,0,-->,15.719755,-0.505016,7.386097
0,0.5,1,1,0,0,0.5,-->,10.299575,3.886044,1.220031
0,0.5,1,1,0,0,1,-->,10.483577,6.556677,3.583291
0,0.5,1,1,0,0.5,0,-->,12.009452,-3.941004,3.643678
0,0.5,1,1,0,0.5,0.5,-->,13.182160,-1.734417,3.757383
0,0.5,1,1,0,0.5,1,-->,11.258852,3.769861,2.163839
0,0.5,1,1,0,1,0,-->,11.486082,-6.781762,5.469662
0,0.5,1,1,0,1,0.5,-->,12.804790,-5.832223,4.563243
0,0.5,1,1,0,1,1,-->,11.075438,1.991192,1.926535
0,0.5,1,1,0.5,0,0,-->,17.666059,4.087600,11.678772
0,0.5,1,1,0.5,0,0.5,-->,14.226561,0.267817,5.459129
0,0.5,1,1,0.5,0,1,-->,11.653649,4.783814,2.907277
0,0.5,1,1,0.5,0.5,0,-->,14.189241,-1.835400,5.202278
0,0.5,1,1,0.5,0.5,0.5,-->,13.731687,-1.985044,4.144567
0,0.5,1,1,0.5,0.5,1,-->,11.381538,3.278274,1.926656
0,0.5,1,1,0.5,1,0,-->,13.238626,-6.109532,5.037199
0,0.5,1,1,0.5,1,0.5,-->,13.060938,-6.091430,4.361155
0,0.5,1,1,0.5,1,1,-->,11.060539,1.609875,1.721361
0,0.5,1,1,1,0,0,-->,18.673342,6.824320,15.991221
0,0.5,1,1,1,0,0.5,-->,15.932010,3.936429,10.655229
0,0.5,1,1,1,0,1,-->,12.026492,5.166165,4.054451
0,0.5,1,1,1,0.5,0,-->,15.761836,2.344846,10.148092
0,0.5,1,1,1,0.5,0.5,-->,15.263149,2.118212,9.133304
0,0.5,1,1,1,0.5,1,-->,11.641073,3.741120,3.103240
0,0.5,1,1,1,1,0,-->,12.835834,-2.275227,5.240458
0,0.5,1,1,1,1,0.5,-->,12.508000,-2.289446,4.533924
0,0.5,1,1,1,1,1,-->,10.648873,-0.636367,0.243650
0,1,0,0,0,0,0,-->,50.747063,76.731522,-2.233459
0,1,0,0,0,0,0.5,-->,34.415398,58.587315,-12.632536
0,1,0,0,0,0,1,-->,20.986155,43.322956,-23.392996
0,1,0,0,0,0.5,0,-->,35.772999,47.310616,-10.824958
0,1,0,0,0,0.5,0.5,-->,24.686937,36.239254,-15.950929
0,1,0,0,0,0.5,1,-->,16.505442,28.160601,-20.744812
0,1,0,0,0,1,0,-->,21.619978,7.287941,-20.937742
0,1,0,0,0,1,0.5,-->,16.846725,11.538894,-19.309767
0,1,0,0,0,1,1,-->,13.459288,14.785987,-18.883268
0,1,0,0,0.5,0,0,-->,49.634987,73.689514,32.576450
0,1,0,0,0.5,0,0.5,-->,34.183426,55.435627,16.396751
0,1,0,0,0.5,0,1,-->,21.952646,39.982071,2.312305
0,1,0,0,0.5,0.5,0,-->,34.498360,47.132042,16.670641
0,1,0,0,0.5,0.5,0.5,-->,24.161476,35.146828,6.619541
0,1,0,0,0.5,0.5,1,-->,16.632597,25.706875,-1.298231
0,1,0,0,0.5,1,0,-->,19.950445,12.676675,-0.374774
0,1,0,0,0.5,1,0.5,-->,15.303198,13.455724,-3.354224
0,1,0,0,0.5,1,1,-->,13.144530,12.566268,-3.987232
0,1,0,0,1,0,0,-->,49.050785,72.583649,62.000004
0,1,0,0,1,0,0.5,-->,34.319233,54.687630,37.298622
0,1,0,0,1,0,1,-->,23.057865,40.171207,19.832678
0,1,0,0,1,0.5,0,-->,34.160507,47.629829,37.152164
0,1,0,0,1,0.5,0.5,-->,24.452538,36.337669,22.212612
0,1,0,0,1,0.5,1,-->,17.390207,25.974136,11.374515
0,1,0,0,1,1,0,-->,19.966257,17.000006,14.996116
0,1,0,0,1,1,0.5,-->,16.214380,14.029630,8.234607
0,1,0,0,1,1,1,-->,13.500327,13.031135,5.171211
0,1,0,0.5,0,0,0,-->,33.121014,49.662415,-2.714650
0,1,0,0.5,0,0,0.5,-->,23.447397,36.841980,-8.254745
0,1,0,0.5,0,0,1,-->,15.697135,26.222994,-12.989603
0,1,0,0.5,0,0.5,0,-->,24.285637,28.617975,-7.164349
0,1,0,0.5,0,0.5,0.5,-->,18.128380,21.677464,-9.037078
0,1,0,0.5,0,0.5,1,-->,13.171678,16.904587,-10.727091
0,1,0,0.5,0,1,0,-->,15.895308,3.802479,-11.676340
0,1,0,0.5,0,1,0.5,-->,13.349359,7.577455,-10.233968
0,1,0,0.5,0,1,1,-->,11.949180,9.595085,-8.905582
0,1,0,0.5,0.5,0,0,-->,33.529854,46.442894,20.778311
0,1,0,0.5,0.5,0,0.5,-->,23.824114,34.349632,10.144034
0,1,0,0.5,0.5,0,1,-->,16.330681,24.371170,2.501368
0,1,0,0.5,0.5,0.5,0,-->,24.231201,27.334099,10.673711
0,1,0,0.5,0.5,0.5,0.5,-->,18.250870,24.133835,4.490530
0,1,0,0.5,0.5,0.5,1,-->,14.383491,14.570477,-0.083162
0,1,0,0.5,0.5,1,0,-->,15.124919,5.833227,1.328371
0,1,0,0.5,0.5,1,0.5,-->,11.762769,9.515563,-3.223778
0,1,0,0.5,0.5,1,1,-->,12.168627,8.817101,-3.076862
0,1,0,0.5,1,0,0,-->,33.539188,45.711006,38.785789
0,1,0,0.5,1,0,0.5,-->,24.067099,33.852924,22.174583
0,1,0,0.5,1,0,1,-->,16.936403,24.396235,11.533955
0,1,0,0.5,1,0.5,0,-->,24.118532,27.866831,23.020222
0,1,0,0.5,1,0.5,0.5,-->,20.571918,19.975292,16.937128
0,1,0,0.5,1,0.5,1,-->,15.096186,17.179083,8.119610
0,1,0,0.5,1,1,0,-->,15.848613,7.107420,9.999262
0,1,0,0.5,1,1,0.5,-->,14.424363,7.744767,6.902748
0,1,0,0.5,1,1,1,-->,12.336576,7.532647,3.075000
0,1,0,1,0,0,0,-->,14.562782,8.315177,5.408561
0,1,0,1,0,0,0.5,-->,13.327569,7.278076,2.423092
0,1,0,1,0,0,1,-->,11.700689,8.579764,0.957191
0,1,0,1,0,0.5,0,-->,11.415811,2.676386,2.509773
0,1,0,1,0,0.5,0.5,-->,10.468861,2.112025,2.268653
0,1,0,1,0,0.5,1,-->,10.250798,4.826281,2.614374
0,1,0,1,0,1,0,-->,11.065345,0.754860,0.330742
0,1,0,1,0,1,0.5,-->,9.781400,3.971448,1.189222
0,1,0,1,0,1,1,-->,10.908787,5.634239,1.342415
0,1,0,1,0.5,0,0,-->,17.628162,6.140265,11.412695
0,1,0,1,0.5,0,0.5,-->,12.304220,4.337460,6.234622
0,1,0,1,0.5,0,1,-->,11.301978,5.546965,4.552863
0,1,0,1,0.5,0.5,0,-->,12.771770,-0.170087,7.207111
0,1,0,1,0.5,0.5,0.5,-->,12.530727,3.459357,3.557848
0,1,0,1,0.5,0.5,1,-->,11.120893,4.294142,1.023414
0,1,0,1,0.5,1,0,-->,10.423338,-0.838972,4.307335
0,1,0,1,0.5,1,0.5,-->,10.737539,0.282165,0.796566
0,1,0,1,0.5,1,1,-->,10.789035,2.850569,0.743552
0,1,0,1,1,0,0,-->,18.320135,6.957191,15.194556
0,1,0,1,1,0,0.5,-->,13.352291,4.523209,6.051426
0,1,0,1,1,0,1,-->,12.282837,8.128409,5.268486
0,1,0,1,1,0.5,0,-->,13.586918,0.515761,8.325938
0,1,0,1,1,0.5,0.5,-->,14.316864,3.068571,7.671583
0,1,0,1,1,0.5,1,-->,11.549821,4.287834,2.921534
0,1,0,1,1,1,0,-->,12.823942,-2.007782,6.206230
0,1,0,1,1,1,0.5,-->,11.897560,-1.341457,3.579127
0,1,0,1,1,1,1,-->,10.647353,-0.439690,0.035026
0,1,0.5,0,0,0,0,-->,50.867565,72.630104,23.077324
0,1,0.5,0,0,0,0.5,-->,34.892876,55.596115,8.672131
0,1,0.5,0,0,0,1,-->,21.992373,40.546947,-4.252359
0,1,0.5,0,0,0.5,0,-->,35.947151,44.394318,9.864552
0,1,0.5,0,0,0.5,0.5,-->,24.967678,34.216957,0.853396
0,1,0.5,0,0,0.5,1,-->,16.853016,25.768112,-6.079385
0,1,0.5,0,0,1,0,-->,22.051807,6.020891,-4.008732
0,1,0.5,0,0,1,0.5,-->,16.557323,9.900620,-6.461903
0,1,0.5,0,0,1,1,-->,13.540103,12.250627,-7.938359
0,1,0.5,0,0.5,0,0,-->,49.738388,72.470070,47.220634
0,1,0.5,0,0.5,0,0.5,-->,34.791393,55.420765,28.441587
0,1,0.5,0,0.5,0,1,-->,22.872173,40.453274,13.361003
0,1,0.5,0,0.5,0.5,0,-->,34.941170,46.754841,28.465466
0,1,0.5,0,0.5,0.5,0.5,-->,25.485016,40.394226,15.773661
0,1,0.5,0,0.5,0.5,1,-->,17.347893,25.986721,4.449842
0,1,0.5,0,0.5,1,0,-->,20.553198,14.653678,9.628265
0,1,0.5,0,0.5,1,0.5,-->,15.256182,16.012850,2.086324
0,1,0.5,0,0.5,1,1,-->,10.768814,10.920804,-13.170055
0,1,0.5,0,1,0,0,-->,49.177395,72.429398,65.046516
0,1,0.5,0,1,0,0.5,-->,34.950905,56.139275,41.311527
0,1,0.5,0,1,0,1,-->,24.382744,42.266521,24.002407
0,1,0.5,0,1,0.5,0,-->,34.636471,48.457699,40.787537
0,1,0.5,0,1,0.5,0.5,-->,27.188543,37.787216,27.910301
0,1,0.5,0,1,0.5,1,-->,16.191492,25.359133,7.386705
0,1,0.5,0,1,1,0,-->,21.304228,20.026772,18.880177
0,1,0.5,0,1,1,0.5,-->,14.826597,13.054952,5.341016
0,1,0.5,0,1,1,1,-->,10.572020,9.980035,-1.682808
0,1,0.5,0.5,0,0,0,-->,32.951946,45.559120,14.156755
0,1,0.5,0.5,0,0,0.5,-->,23.681345,34.397465,5.200636
0,1,0.5,0.5,0,0,1,-->,16.009388,24.878201,-1.547376
0,1,0.5,0.5,0,0.5,0,-->,24.351149,26.070408,5.969350
0,1,0.5,0.5,0,0.5,0.5,-->,19.175085,22.315405,2.921884
0,1,0.5,0.5,0,0.5,1,-->,14.648271,14.659195,-1.572074
0,1,0.5,0.5,0,1,0,-->,16.127207,2.375519,-1.239410
0,1,0.5,0.5,0,1,0.5,-->,12.449192,7.282484,-4.368641
0,1,0.5,0.5,0,1,1,-->,12.154147,8.461014,-3.621578
0,1,0.5,0.5,0.5,0,0,-->,33.515797,45.344296,29.407541
0,1,0.5,0.5,0.5,0,0.5,-->,23.254044,39.866421,16.191547
0,1,0.5,0.5,0.5,0,1,-->,16.910643,23.425491,6.258500
0,1,0.5,0.5,0.5,0.5,0,-->,24.777538,28.919252,18.356640
0,1,0.5,0.5,0.5,0.5,0.5,-->,18.017418,24.481152,10.016133
0,1,0.5,0.5,0.5,0.5,1,-->,13.846056,16.493525,-2.915485
0,1,0.5,0.5,0.5,1,0,-->,15.620234,7.165481,5.086552
0,1,0.5,0.5,0.5,1,0.5,-->,13.151280,6.722029,-3.230929
0,1,0.5,0.5,0.5,1,1,-->,10.687284,7.355486,-7.268440
0,1,0.5,0.5,1,0,0,-->,33.700119,45.850552,40.416325
0,1,0.5,0.5,1,0,0.5,-->,25.369066,36.195118,25.730722
0,1,0.5,0.5,1,0,1,-->,18.083084,22.792553,13.669622
0,1,0.5,0.5,1,0.5,0,-->,26.415104,27.242189,27.481745
0,1,0.5,0.5,1,0.5,0.5,-->,22.384575,24.893141,19.529165
0,1,0.5,0.5,1,0.5,1,-->,13.963470,15.931215,5.041455
0,1,0.5,0.5,1,1,0,-->,16.165001,9.040163,10.419687
0,1,0.5,0.5,1,1,0.5,-->,13.282249,6.708335,4.088603
0,1,0.5,0.5,1,1,1,-->,10.602257,5.726878,-0.978729
0,1,0.5,1,0,0,0,-->,15.072306,5.139141,6.788131
0,1,0.5,1,0,0,0.5,-->,11.242817,4.742943,3.982954
0,1,0.5,1,0,0,1,-->,10.462605,6.080137,3.463978
0,1,0.5,1,0,0.5,0,-->,11.357050,0.888932,4.107314
0,1,0.5,1,0,0.5,0.5,-->,12.303049,3.866589,3.152242
0,1,0.5,1,0,0.5,1,-->,11.063215,4.633266,1.053767
0,1,0.5,1,0,1,0,-->,9.897267,-0.775858,2.397269
0,1,0.5,1,0,1,0.5,-->,10.681234,0.511719,0.694474
0,1,0.5,1,0,1,1,-->,10.789032,3.123303,0.911746
0,1,0.5,1,0.5,0,0,-->,17.304724,5.609327,11.921001
0,1,0.5,1,0.5,0,0.5,-->,13.411030,5.455496,4.923844
0,1,0.5,1,0.5,0,1,-->,11.485970,5.636063,1.828956
0,1,0.5,1,0.5,0.5,0,-->,13.208508,3.773540,4.445450
0,1,0.5,1,0.5,0.5,0.5,-->,12.713385,3.977193,3.221034
0,1,0.5,1,0.5,0.5,1,-->,11.186616,4.262710,0.700827
0,1,0.5,1,0.5,1,0,-->,11.062485,0.081962,1.225427
0,1,0.5,1,0.5,1,0.5,-->,10.857036,0.174525,0.403531
0,1,0.5,1,0.5,1,1,-->,10.779655,2.653876,0.712652
0,1,0.5,1,1,0,0,-->,18.372335,7.808664,15.428381
0,1,0.5,1,1,0,0.5,-->,15.319024,5.207644,9.485180
0,1,0.5,1,1,0,1,-->,11.904941,5.529866,3.768235
0,1,0.5,1,1,0.5,0,-->,15.116051,3.613963,9.060424
0,1,0.5,1,1,0.5,0.5,-->,14.630432,3.461683,7.978637
0,1,0.5,1,1,0.5,1,-->,11.513127,4.036379,2.782537
0,1,0.5,1,1,1,0,-->,12.128221,-1.215570,4.009142
0,1,0.5,1,1,1,0.5,-->,11.800901,-1.231932,3.277757
0,1,0.5,1,1,1,1,-->,10.646022,-0.439690,0.038917
0,1,1,0,0,0,0,-->,50.674103,70.548630,49.287937
0,1,1,0,0,0,0.5,-->,35.206505,54.123451,28.490286
0,1,1,0,0,0,1,-->,23.358818,40.626453,12.206229
0,1,1,0,0,0.5,0,-->,36.206802,43.014400,29.029659
0,1,1,0,0,0.5,0.5,-->,25.465282,34.723183,16.206427
0,1,1,0,0,0.5,1,-->,17.812836,25.701206,5.608263
0,1,1,0,0,1,0,-->,23.109547,7.350196,10.459144
0,1,1,0,0,1,0.5,-->,17.720886,9.861162,4.138928
0,1,1,0,0,1,1,-->,14.115913,11.972770,0.470818
0,1,1,0,0.5,0,0,-->,49.842598,71.890587,60.122494
0,1,1,0,0.5,0,0.5,-->,35.085964,57.093979,38.522430
0,1,1,0,0.5,0,1,-->,24.600250,42.706432,22.191031
0,1,1,0,0.5,0.5,0,-->,35.283226,47.552223,38.125565
0,1,1,0,0.5,0.5,0.5,-->,25.919018,38.031498,22.638388
0,1,1,0,0.5,0.5,1,-->,16.394060,25.587729,3.641595
0,1,1,0,0.5,1,0,-->,22.342281,17.606575,17.681234
0,1,1,0,0.5,1,0.5,-->,16.378063,8.504104,3.097784
0,1,1,0,0.5,1,1,-->,10.972977,9.477505,-4.070577
0,1,1,0,1,0,0,-->,49.373020,72.369644,66.964981
0,1,1,0,1,0,0.5,-->,35.710327,56.398693,42.766060
0,1,1,0,1,0,1,-->,25.825722,44.494160,27.416342
0,1,1,0,1,0.5,0,-->,35.288731,48.694485,41.902943
0,1,1,0,1,0.5,0.5,-->,30.068460,42.382126,32.122784
0,1,1,0,1,0.5,1,-->,17.503674,27.476273,10.894570
0,1,1,0,1,1,0,-->,22.838991,22.968878,22.120626
0,1,1,0,1,1,0.5,-->,16.206814,15.970870,8.686508
0,1,1,0,1,1,1,-->,7.140794,7.023353,-9.642020
0,1,1,0.5,0,0,0,-->,32.877914,43.017120,28.734127
0,1,1,0.5,0,0,0.5,-->,23.768677,33.727470,16.566404
0,1,1,0.5,0,0,1,-->,16.949236,25.167318,7.428989
0,1,1,0.5,0,0.5,0,-->,24.573097,24.497049,17.180922
0,1,1,0.5,0,0.5,0.5,-->,19.663885,21.214848,11.191167
0,1,1,0.5,0,0.5,1,-->,15.603767,14.464509,5.814714
0,1,1,0.5,0,1,0,-->,17.044920,2.811918,6.803983
0,1,1,0.5,0,1,0.5,-->,13.160700,7.447836,1.252162
0,1,1,0.5,0,1,1,-->,12.701548,7.199846,0.451773
0,1,1,0.5,0.5,0,0,-->,33.632168,44.596100,35.951504
0,1,1,0.5,0.5,0,0.5,-->,23.680744,39.308945,20.528513
0,1,1,0.5,0.5,0,1,-->,17.846655,23.571800,11.166863
0,1,1,0.5,0.5,0.5,0,-->,25.270880,28.250351,22.939514
0,1,1,0.5,0.5,0.5,0.5,-->,21.505993,24.295828,14.643297
0,1,1,0.5,0.5,0.5,1,-->,14.007935,16.122026,2.685187
0,1,1,0.5,0.5,1,0,-->,16.489111,7.861178,8.431345
0,1,1,0.5,0.5,1,0.5,-->,13.878982,4.444508,2.101553
0,1,1,0.5,0.5,1,1,-->,10.840957,5.589097,-2.308916
0,1,1,0.5,1,0,0,-->,33.827732,46.085682,41.341362
0,1,1,0.5,1,0,0.5,-->,25.988564,37.292286,27.786276
0,1,1,0.5,1,0,1,-->,19.969748,27.390291,17.071154
0,1,1,0.5,1,0.5,0,-->,27.107626,28.228586,29.587637
0,1,1,0.5,1,0.5,0.5,-->,23.304321,26.652279,21.681902
0,1,1,0.5,1,0.5,1,-->,14.891429,16.765013,6.924209
0,1,1,0.5,1,1,0,-->,18.145248,13.466090,13.716740
0,1,1,0.5,1,1,0.5,-->,14.099613,9.301376,5.507615
0,1,1,0.5,1,1,1,-->,8.625977,3.742062,-5.595534
0,1,1,1,0,0,0,-->,15.363804,2.657585,8.245139
0,1,1,1,0,0,0.5,-->,10.813419,4.119610,3.602123
0,1,1,1,0,0,1,-->,11.898285,8.381324,3.844352
0,1,1,1,0,0.5,0,-->,11.275538,-0.662510,4.147743
0,1,1,1,0,0.5,0.5,-->,12.641782,1.439872,4.298534
0,1,1,1,0,0.5,1,-->,11.339666,4.750847,2.309706
0,1,1,1,0,1,0,-->,11.898285,-1.062256,3.451362
0,1,1,1,0,1,0.5,-->,11.367813,-0.492568,2.162365
0,1,1,1,0,1,1,-->,10.651914,0.280159,0.420235
0,1,1,1,0.5,0,0,-->,17.962223,5.660609,12.435782
0,1,1,1,0.5,0,0.5,-->,13.847070,3.142196,6.038795
0,1,1,1,0.5,0,1,-->,11.704603,5.729203,3.031606
0,1,1,1,0.5,0.5,0,-->,13.624440,1.466957,5.543378
0,1,1,1,0.5,0.5,0.5,-->,13.130037,1.355896,4.509256
0,1,1,1,0.5,0.5,1,-->,11.318794,4.200743,2.078177
0,1,1,1,0.5,1,0,-->,11.642070,-0.720046,2.567332
0,1,1,1,0.5,1,0.5,-->,11.330776,-0.729948,1.892610
0,1,1,1,0.5,1,1,-->,10.649129,-0.051670,0.249137
0,1,1,1,1,0,0,-->,18.497971,8.821006,15.758750
0,1,1,1,1,0,0.5,-->,15.509221,6.168551,9.932097
0,1,1,1,1,0,1,-->,11.475735,2.587547,2.070045
0,1,1,1,1,0.5,0,-->,15.289168,4.726224,9.378968
0,1,1,1,1,0.5,0.5,-->,14.763856,4.451210,8.305633
0,1,1,1,1,0.5,1,-->,11.103933,1.231157,1.163201
0,1,1,1,1,1,0,-->,11.338938,-0.315178,1.525291
0,1,1,1,1,1,0.5,-->,11.043945,-0.368177,0.895984
0,1,1,1,1,1,1,-->,10.645834,-0.439690,0.046699
0.5,0,0,0,0,0,0,-->,78.795197,-18.573837,-25.659765
0.5,0,0,0,0,0,0.5,-->,50.059723,4.902155,-38.986774
0.5,0,0,0,0,0,1,-->,21.494802,40.579201,-58.994244
0.5,0,0,0,0,0.5,0,-->,66.285454,-44.603981,-17.378040
0.5,0,0,0,0,0.5,0.5,-->,42.124634,-15.106218,-29.504345
0.5,0,0,0,0,0.5,1,-->,19.963955,21.416494,-45.235039
0.5,0,0,0,0,1,0,-->,55.270500,-73.008530,-9.503093
0.5,0,0,0,0,1,0.5,-->,35.626530,-34.195431,-20.986746
0.5,0,0,0,0,1,1,-->,19.245914,5.753416,-33.783188
0.5,0,0,0,0.5,0,0,-->,60.272156,11.169933,7.137499
0.5,0,0,0,0.5,0,0.5,-->,38.507256,17.588291,-7.631260
0.5,0,0,0,0.5,0,1,-->,18.706507,26.797750,-24.477367
0.5,0,0,0,0.5,0.5,0,-->,48.376488,-11.703669,5.310055
0.5,0,0,0,0.5,0.5,0.5,-->,31.222677,1.106539,-6.382822
0.5,0,0,0,0.5,0.5,1,-->,16.597643,14.443032,-18.473324
0.5,0,0,0,0.5,1,0,-->,37.759495,-38.746292,2.933739
0.5,0,0,0,0.5,1,0.5,-->,24.720074,-15.230814,-6.328963
0.5,0,0,0,0.5,1,1,-->,14.907750,4.999567,-14.381172
0.5,0,0,0,1,0,0,-->,48.561417,35.152939,54.663845
0.5,0,0,0,1,0,0.5,-->,32.004383,28.147924,29.088587
0.5,0,0,0,1,0,1,-->,18.011269,21.878611,7.985872
0.5,0,0,0,1,0.5,0,-->,36.359512,16.227264,35.980869
0.5,0,0,0,1,0.5,0.5,-->,24.393751,14.606789,17.807888
0.5,0,0,0,1,0.5,1,-->,14.771348,12.801460,4.732973
0.5,0,0,0,1,1,0,-->,25.527742,-6.566580,20.457273
0.5,0,0,0,1,1,0.5,-->,17.742874,0.484922,8.844292
0.5,0,0,0,1,1,1,-->,9.414375,5.700720,1.988289
0.5,0,0,0.5,0,0,0,-->,52.370964,-13.196913,-16.334633
0.5,0,0,0.5,0,0,0.5,-->,33.422836,3.548181,-25.095335
0.5,0,0,0.5,0,0,1,-->,16.098524,24.354877,-35.850773
0.5,0,0,0.5,0,0.5,0,-->,44.051559,-30.185589,-10.936665
0.5,0,0,0.5,0,0.5,0.5,-->,28.776264,-8.399024,-18.267208
0.5,0,0,0.5,0,0.5,1,-->,15.297694,13.587121,-26.576336
0.5,0,0,0.5,0,1,0,-->,36.527554,-47.659565,-6.227129
0.5,0,0,0.5,0,1,0.5,-->,24.429792,-19.254662,-12.857940
0.5,0,0,0.5,0,1,1,-->,14.819630,5.299720,-19.162607
0.5,0,0,0.5,0.5,0,0,-->,40.657665,5.749707,6.928313
0.5,0,0,0.5,0.5,0,0.5,-->,26.805878,10.738688,-3.034905
0.5,0,0,0.5,0.5,0,1,-->,14.743876,16.085867,-12.597456
0.5,0,0,0.5,0.5,0.5,0,-->,32.977837,-8.803155,5.210698
0.5,0,0,0.5,0.5,0.5,0.5,-->,24.398697,-0.481031,-1.751128
0.5,0,0,0.5,0.5,0.5,1,-->,13.489449,10.566998,-10.240275
0.5,0,0,0.5,0.5,1,0,-->,25.742077,-24.804127,3.143761
0.5,0,0,0.5,0.5,1,0.5,-->,19.948952,-12.824418,-0.506695
0.5,0,0,0.5,0.5,1,1,-->,13.442961,4.368496,-5.903584
0.5,0,0,0.5,1,0,0,-->,33.168659,20.163002,34.842510
0.5,0,0,0.5,1,0,0.5,-->,22.828785,16.791990,17.805244
0.5,0,0,0.5,1,0,1,-->,14.184125,13.355804,5.697011
0.5,0,0,0.5,1,0.5,0,-->,25.679955,7.711800,22.461803
0.5,0,0,0.5,1,0.5,0.5,-->,19.751719,8.636108,14.669895
0.5,0,0,0.5,1,0.5,1,-->,14.045615,5.076064,5.760970
0.5,0,0,0.5,1,1,0,-->,18.569180,-5.982414,13.194177
0.5,0,0,0.5,1,1,0.5,-->,13.438709,2.644149,4.712226
0.5,0,0,0.5,1,1,1,-->,11.193706,4.142636,2.156513
0.5,0,0,1,0,0,0,-->,15.485005,-2.909055,-2.087920
0.5,0,0,1,0,0,0.5,-->,12.965725,3.544321,-2.858936
0.5,0,0,1,0,0,1,-->,11.713001,7.248271,-2.685840
0.5,0,0,1,0,0.5,0,-->,14.732512,-6.432637,-0.503055
0.5,0,0,1,0,0.5,0.5,-->,9.830649,0.450907,-1.965581
0.5,0,0,1,0,0.5,1,-->,10.802242,4.128775,0.494939
0.5,0,0,1,0,1,0,-->,13.861632,-8.724575,0.443535
0.5,0,0,1,0,1,0.5,-->,10.377795,2.319114,-0.518642
0.5,0,0,1,0,1,1,-->,10.824673,5.052763,1.043918
0.5,0,0,1,0.5,0,0,-->,14.326151,-0.763622,6.999642
0.5,0,0,1,0.5,0,0.5,-->,10.150537,3.417103,3.139870
0.5,0,0,1,0.5,0,1,-->,11.288068,4.136466,3.875860
0.5,0,0,1,0.5,0.5,0,-->,11.625903,-4.272506,5.297531
0.5,0,0,1,0.5,0.5,0.5,-->,13.181752,-0.859043,1.148397
0.5,0,0,1,0.5,0.5,1,-->,11.265770,3.876985,-0.320710
0.5,0,0,1,0.5,1,0,-->,11.219958,-3.936391,3.774178
0.5,0,0,1,0.5,1,0.5,-->,12.211129,-4.226604,1.330453
0.5,0,0,1,0.5,1,1,-->,10.975530,2.539746,0.368345
0.5,0,0,1,1,0,0,-->,15.765635,-1.311773,10.844109
0.5,0,0,1,1,0,0.5,-->,11.984784,0.568731,3.943330
0.5,0,0,1,1,0,1,-->,10.667912,4.772035,4.442395
0.5,0,0,1,1,0.5,0,-->,13.059444,-4.917248,5.583337
0.5,0,0,1,1,0.5,0.5,-->,14.351697,0.051411,7.521841
0.5,0,0,1,1,0.5,1,-->,11.307219,3.353662,2.700158
0.5,0,0,1,1,1,0,-->,11.565641,-5.240162,6.026059
0.5,0,0,1,1,1,0.5,-->,12.020872,-3.085465,4.170877
0.5,0,0,1,1,1,1,-->,10.966684,1.871392,2.071398
0.5,0,0.5,0,0,0,0,-->,74.669258,-28.269632,16.519804
0.5,0,0.5,0,0,0,0.5,-->,47.715309,-6.824419,-4.450268
0.5,0,0.5,0,0,0,1,-->,21.307524,22.941505,-30.470793
0.5,0,0.5,0,0,0.5,0,-->,63.202209,-51.636940,16.492338
0.5,0,0.5,0,0,0.5,0.5,-->,40.502945,-23.555689,-2.052984
0.5,0,0.5,0,0,0.5,1,-->,19.651480,7.954896,-22.375509
0.5,0,0.5,0,0,1,0,-->,53.744202,-76.351585,16.002211
0.5,0,0.5,0,0,1,0.5,-->,34.791027,-40.761925,0.094805
0.5,0,0.5,0,0,1,1,-->,18.647240,-4.158056,-16.051615
0.5,0,0.5,0,0.5,0,0,-->,58.965839,7.610634,35.405445
0.5,0,0.5,0,0.5,0,0.5,-->,38.145344,13.841464,14.836311
0.5,0,0.5,0,0.5,0,1,-->,19.600887,20.682587,-5.931018
0.5,0,0.5,0,0.5,0.5,0,-->,47.758026,-13.864134,27.690414
0.5,0,0.5,0,0.5,0.5,0.5,-->,35.328091,-4.740063,15.028566
0.5,0,0.5,0,0.5,0.5,1,-->,16.494452,12.363282,-6.243559
0.5,0,0.5,0,0.5,1,0,-->,38.176373,-39.361835,20.265141
0.5,0,0.5,0,0.5,1,0.5,-->,28.350227,-25.316416,11.743977
0.5,0,0.5,0,0.5,1,1,-->,15.532141,1.080715,-3.441962
0.5,0,0.5,0,1,0,0,-->,49.424126,33.018078,60.936668
0.5,0,0.5,0,1,0,0.5,-->,33.174072,27.412983,34.576481
0.5,0,0.5,0,1,0,1,-->,19.366335,22.498404,13.713471
0.5,0,0.5,0,1,0.5,0,-->,37.956635,14.491594,42.048626
0.5,0,0.5,0,1,0.5,0.5,-->,28.355089,13.329373,28.899038
0.5,0,0.5,0,1,0.5,1,-->,16.767368,10.565918,9.985188
0.5,0,0.5,0,1,1,0,-->,27.704731,-7.545833,27.217035
0.5,0,0.5,0,1,1,0.5,-->,19.221178,-0.696130,13.998654
0.5,0,0.5,0,1,1,1,-->,10.186626,4.558684,0.870237
0.5,0,0.5,0.5,0,0,0,-->,49.654106,-19.606522,10.717758
0.5,0,0.5,0.5,0,0,0.5,-->,31.977781,-3.440305,-3.164432
0.5,0,0.5,0.5,0,0,1,-->,16.017389,14.309706,-17.179979
0.5,0,0.5,0.5,0,0.5,0,-->,42.209183,-34.594612,10.733793
0.5,0,0.5,0.5,0,0.5,0.5,-->,29.135593,-13.942440,-0.017395
0.5,0,0.5,0.5,0,0.5,1,-->,14.710604,6.766001,-12.084560
0.5,0,0.5,0.5,0,1,0,-->,35.693977,-50.076420,10.894099
0.5,0,0.5,0.5,0,1,0.5,-->,24.241415,-25.215948,1.698395
0.5,0,0.5,0.5,0,1,1,-->,14.416324,0.899875,-6.774596
0.5,0,0.5,0.5,0.5,0,0,-->,39.792763,3.671811,23.524940
0.5,0,0.5,0.5,0.5,0,0.5,-->,28.965069,8.325923,12.669698
0.5,0,0.5,0.5,0.5,0,1,-->,14.904406,14.709854,-3.002341
0.5,0,0.5,0.5,0.5,0.5,0,-->,35.308693,-13.094037,21.664621
0.5,0,0.5,0.5,0.5,0.5,0.5,-->,24.727739,-3.048607,11.027168
0.5,0,0.5,0.5,0.5,0.5,1,-->,13.190145,7.629786,-1.762231
0.5,0,0.5,0.5,0.5,1,0,-->,28.390724,-31.070744,17.176575
0.5,0,0.5,0.5,0.5,1,0.5,-->,20.001446,-15.424475,8.754221
0.5,0,0.5,0.5,0.5,1,1,-->,12.674109,2.370016,-6.424817
0.5,0,0.5,0.5,1,0,0,-->,33.789677,19.170860,38.385685
0.5,0,0.5,0.5,1,0,0.5,-->,24.542585,19.360106,24.075773
0.5,0,0.5,0.5,1,0,1,-->,15.755303,10.627900,9.318080
0.5,0,0.5,0.5,1,0.5,0,-->,28.634682,4.883688,30.865295
0.5,0,0.5,0.5,1,0.5,0.5,-->,20.489708,7.827998,18.088039
0.5,0,0.5,0.5,1,0.5,1,-->,13.836659,9.342262,5.987331
0.5,0,0.5,0.5,1,1,0,-->,19.353659,-6.828317,15.285113
0.5,0,0.5,0.5,1,1,0.5,-->,16.168898,-1.703699,9.945624
0.5,0,0.5,0.5,1,1,1,-->,10.505048,3.380853,1.302076
0.5,0,0.5,1,0,0,0,-->,15.428927,-5.196168,2.168065
0.5,0,0.5,1,0,0,0.5,-->,10.070046,1.740512,0.584325
0.5,0,0.5,1,0,0,1,-->,11.085979,4.469951,2.147333
0.5,0,0.5,1,0,0.5,0,-->,14.594643,-8.236005,3.206762
0.5,0,0.5,1,0,0.5,0.5,-->,13.692141,-1.667411,0.851755
0.5,0,0.5,1,0,0.5,1,-->,11.391178,3.760757,-0.388620
0.5,0,0.5,1,0,1,0,-->,14.075080,-10.382897,4.271890
0.5,0,0.5,1,0,1,0.5,-->,12.738225,-5.332079,1.526188
0.5,0,0.5,1,0,1,1,-->,11.129810,2.329419,0.462747
0.5,0,0.5,1,0.5,0,0,-->,13.764227,-0.817602,9.989109
0.5,0,0.5,1,0.5,0,0.5,-->,13.652849,-0.284278,2.167563
0.5,0,0.5,1,0.5,0,1,-->,11.393165,4.122422,-0.017228
0.5,0,0.5,1,0.5,0.5,0,-->,14.160438,-2.161879,2.467382
0.5,0,0.5,1,0.5,0.5,0.5,-->,13.868237,-0.993525,1.027503
0.5,0,0.5,1,0.5,0.5,1,-->,11.309188,3.833151,-0.670390
0.5,0,0.5,1,0.5,1,0,-->,12.851241,-5.855843,2.204117
0.5,0,0.5,1,0.5,1,0.5,-->,12.544335,-4.903325,1.302912
0.5,0,0.5,1,0.5,1,1,-->,10.999847,2.328082,0.336730
0.5,0,0.5,1,1,0,0,-->,15.419744,-1.126640,10.392769
0.5,0,0.5,1,1,0,0.5,-->,14.859867,0.763675,8.612261
0.5,0,0.5,1,1,0,1,-->,11.452499,3.546570,2.981115
0.5,0,0.5,1,1,0.5,0,-->,15.068271,-0.367068,8.984990
0.5,0,0.5,1,1,0.5,0.5,-->,14.807622,0.611243,8.292273
0.5,0,0.5,1,1,0.5,1,-->,11.380863,3.237783,2.573001
0.5,0,0.5,1,1,1,0,-->,12.389787,-3.632719,4.767931
0.5,0,0.5,1,1,1,0.5,-->,12.133095,-2.860213,4.007668
0.5,0,0.5,1,1,1,1,-->,10.963864,1.874797,2.082114
0.5,0,1,0,0,0,0,-->,71.483818,-32.053543,62.791351
0.5,0,1,0,0,0,0.5,-->,46.114178,-12.403674,31.984959
0.5,0,1,0,0,0,1,-->,22.323795,11.554352,-0.808619
0.5,0,1,0,0,0.5,0,-->,61.252392,-53.537006,50.442726
0.5,0,1,0,0,0.5,0.5,-->,39.476376,-28.358463,25.246887
0.5,0,1,0,0,0.5,1,-->,19.978134,-1.283928,-0.093832
0.5,0,1,0,0,1,0,-->,53.120266,-75.951149,40.199539
0.5,0,1,0,0,1,0.5,-->,34.306911,-44.062138,19.633949
0.5,0,1,0,0,1,1,-->,19.439505,-11.584226,0.741743
0.5,0,1,0,0.5,0,0,-->,58.217854,6.506535,62.817871
0.5,0,1,0,0.5,0,0.5,-->,38.116585,12.505060,35.796139
0.5,0,1,0,0.5,0,1,-->,20.920927,19.032198,10.867774
0.5,0,1,0,0.5,0.5,0,-->,47.826904,-14.309409,47.947994
0.5,0,1,0,0.5,0.5,0.5,-->,34.898602,-6.393385,32.479023
0.5,0,1,0,0.5,0.5,1,-->,17.976471,6.309660,7.752792
0.5,0,1,0,0.5,1,0,-->,39.091488,-38.162704,35.613354
0.5,0,1,0,0.5,1,0.5,-->,28.946281,-24.815540,22.020342
0.5,0,1,0,0.5,1,1,-->,13.934395,-4.861915,1.065075
0.5,0,1,0,1,0,0,-->,50.443638,30.905619,65.772438
0.5,0,1,0,1,0,0.5,-->,34.021938,26.862255,38.846115
0.5,0,1,0,1,0,1,-->,21.185198,23.361351,18.191652
0.5,0,1,0,1,0.5,0,-->,39.281528,12.478857,46.783066
0.5,0,1,0,1,0.5,0.5,-->,29.784859,12.499725,32.047760
0.5,0,1,0,1,0.5,1,-->,17.718893,19.561678,13.856481
0.5,0,1,0,1,1,0,-->,30.528719,-8.654210,32.810715
0.5,0,1,0,1,1,0.5,-->,23.655787,-1.359210,23.279306
0.5,0,1,0,1,1,1,-->,11.950651,5.012380,4.491914
0.5,0,1,0.5,0,0,0,-->,47.329868,-22.602388,40.613792
0.5,0,1,0.5,0,0,0.5,-->,30.807404,-7.331631,19.517342
0.5,0,1,0.5,0,0,1,-->,16.317358,8.065288,0.459357
0.5,0,1,0.5,0,0.5,0,-->,40.792023,-36.353271,32.364132
0.5,0,1,0.5,0,0.5,0.5,-->,28.206432,-16.499300,18.553120
0.5,0,1,0.5,0,0.5,1,-->,15.808008,-0.162912,2.713472
0.5,0,1,0.5,0,1,0,-->,35.444885,-50.161968,26.199860
0.5,0,1,0.5,0,1,0.5,-->,24.542700,-25.666323,13.162395
0.5,0,1,0.5,0,1,1,-->,15.019180,-4.945419,2.625986
0.5,0,1,0.5,0.5,0,0,-->,39.204811,2.899662,39.860401
0.5,0,1,0.5,0.5,0,0.5,-->,28.457100,6.795670,25.624298
0.5,0,1,0.5,0.5,0,1,-->,16.294193,9.321926,7.417119
0.5,0,1,0.5,0.5,0.5,0,-->,34.853409,-14.376331,35.072430
0.5,0,1,0.5,0.5,0.5,0.5,-->,24.243883,-4.323933,20.769131
0.5,0,1,0.5,0.5,0.5,1,-->,14.741872,6.667723,4.030938
0.5,0,1,0.5,0.5,1,0,-->,29.280436,-30.706654,24.954075
0.5,0,1,0.5,0.5,1,0.5,-->,24.472532,-22.434740,16.978727
0.5,0,1,0.5,0.5,1,1,-->,12.497106,-2.026728,1.379881
0.5,0,1,0.5,1,0,0,-->,34.409679,18.229179,41.586876
0.5,0,1,0.5,1,0,0.5,-->,25.908846,19.380928,26.608034
0.5,0,1,0.5,1,0,1,-->,17.730682,12.387859,13.608476
0.5,0,1,0.5,1,0.5,0,-->,30.218718,4.323248,33.666702
0.5,0,1,0.5,1,0.5,0.5,-->,26.442961,12.547618,27.645060
0.5,0,1,0.5,1,0.5,1,-->,14.966973,12.529243,9.158474
0.5,0,1,0.5,1,1,0,-->,22.086405,-6.552140,20.296543
0.5,0,1,0.5,1,1,0.5,-->,18.630640,-1.858039,15.013640
0.5,0,1,0.5,1,1,1,-->,11.409590,2.657372,2.808224
0.5,0,1,1,0,0,0,-->,15.437802,-7.049496,5.806339
0.5,0,1,1,0,0,0.5,-->,10.205536,-0.215806,0.697422
0.5,0,1,1,0,0,1,-->,10.318809,5.009325,2.736499
0.5,0,1,1,0,0.5,0,-->,15.142783,-9.616426,5.538864
0.5,0,1,1,0,0.5,0.5,-->,13.667503,-3.427545,3.977163
0.5,0,1,1,0,0.5,1,-->,11.375470,2.976844,2.067659
0.5,0,1,1,0,1,0,-->,14.682141,-11.911532,6.554686
0.5,0,1,1,0,1,0.5,-->,13.430102,-7.237206,4.749434
0.5,0,1,1,0,1,1,-->,11.195810,1.256372,1.901273
0.5,0,1,1,0.5,0,0,-->,14.039887,-1.280782,7.569916
0.5,0,1,1,0.5,0,0.5,-->,13.595729,-2.026393,4.529577
0.5,0,1,1,0.5,0,1,-->,11.365412,3.331350,2.298611
0.5,0,1,1,0.5,0.5,0,-->,14.073557,-3.623501,5.091871
0.5,0,1,1,0.5,0.5,0.5,-->,13.684990,-2.672526,4.139688
0.5,0,1,1,0.5,0.5,1,-->,11.339350,2.954531,1.941992
0.5,0,1,1,0.5,1,0,-->,13.500404,-7.478774,5.267194
0.5,0,1,1,0.5,1,0.5,-->,13.136371,-6.504521,4.484299
0.5,0,1,1,0.5,1,1,-->,11.045454,1.406069,1.808483
0.5,0,1,1,1,0,0,-->,15.660831,0.730176,12.595739
0.5,0,1,1,1,0,0.5,-->,15.246007,1.781762,9.725555
0.5,0,1,1,1,0,1,-->,11.687489,3.669440,3.445420
0.5,0,1,1,1,0.5,0,-->,15.421507,0.860236,9.978120
0.5,0,1,1,1,0.5,0.5,-->,15.115577,1.585252,9.089044
0.5,0,1,1,1,0.5,1,-->,11.574244,3.425296,3.114381
0.5,0,1,1,1,1,0,-->,12.749977,-3.214916,5.290053
0.5,0,1,1,1,1,0.5,-->,12.453500,-2.515571,4.587851
0.5,0,1,1,1,1,1,-->,10.624262,-0.757999,0.361049
0.5,0.5,0,0,0,0,0,-->,57.306313,13.142712,-27.482975
0.5,0.5,0,0,0,0,0.5,-->,36.726070,22.866693,-35.519135
0.5,0.5,0,0,0,0,1,-->,18.929764,37.259594,-46.030144
0.5,0.5,0,0,0,0.5,0,-->,47.016964,-12.676956,-21.865295
0.5,0.5,0,0,0,0.5,0.5,-->,30.799362,3.948588,-28.233009
0.5,0.5,0,0,0,0.5,1,-->,17.002872,22.143244,-36.271282
0.5,0.5,0,0,0,1,0,-->,38.085098,-41.245113,-17.332769
0.5,0.5,0,0,0,1,0.5,-->,25.289000,-14.213563,-23.019392
0.5,0.5,0,0,0,1,1,-->,15.700306,10.229013,-28.565742
0.5,0.5,0,0,0.5,0,0,-->,46.210896,30.092356,4.808437
0.5,0.5,0,0,0.5,0,0.5,-->,30.538168,28.220957,-5.678347
0.5,0.5,0,0,0.5,0,1,-->,17.539995,26.952372,-16.687960
0.5,0.5,0,0,0.5,0.5,0,-->,35.975792,7.558061,1.496534
0.5,0.5,0,0,0.5,0.5,0.5,-->,26.827408,13.617702,-6.353882
0.5,0.5,0,0,0.5,0.5,1,-->,14.482194,18.579901,-15.748103
0.5,0.5,0,0,0.5,1,0,-->,26.674704,-18.763605,-3.419839
0.5,0.5,0,0,0.5,1,0.5,-->,20.646013,-7.104775,-6.093771
0.5,0.5,0,0,0.5,1,1,-->,13.644213,8.238619,-11.474359
0.5,0.5,0,0,1,0,0,-->,40.207291,42.004246,42.484753
0.5,0.5,0,0,1,0,0.5,-->,27.418882,32.835884,22.418653
0.5,0.5,0,0,1,0,1,-->,17.368681,24.224133,7.927082
0.5,0.5,0,0,1,0.5,0,-->,29.602715,23.353994,25.950274
0.5,0.5,0,0,1,0.5,0.5,-->,22.356386,21.702406,16.287149
0.5,0.5,0,0,1,0.5,1,-->,15.065681,12.272224,4.720023
0.5,0.5,0,0,1,1,0,-->,19.759104,0.746926,12.130933
0.5,0.5,0,0,1,1,0.5,-->,13.912169,8.862196,2.797341
0.5,0.5,0,0,1,1,1,-->,10.643658,7.432910,-1.623767
0.5,0.5,0,0.5,0,0,0,-->,39.144997,7.595389,-17.112192
0.5,0.5,0,0.5,0,0,0.5,-->,26.072655,14.035391,-21.390268
0.5,0.5,0,0.5,0,0,1,-->,14.715770,22.183004,-26.866632
0.5,0.5,0,0.5,0,0.5,0,-->,32.215836,-8.698485,-13.260650
0.5,0.5,0,0.5,0,0.5,0.5,-->,22.517401,2.760255,-17.537594
0.5,0.5,0,0.5,0,0.5,1,-->,13.205448,12.133851,-19.823483
0.5,0.5,0,0.5,0,1,0,-->,25.478559,-25.306156,-11.002128
0.5,0.5,0,0.5,0,1,0.5,-->,18.216198,-9.314820,-12.741430
0.5,0.5,0,0.5,0,1,1,-->,13.106535,5.968150,-12.556845
0.5,0.5,0,0.5,0.5,0,0,-->,32.497673,17.163944,5.814683
0.5,0.5,0,0.5,0.5,0,0.5,-->,23.074902,20.235260,-2.141063
0.5,0.5,0,0.5,0.5,0,1,-->,13.738375,17.395018,-8.844839
0.5,0.5,0,0.5,0.5,0.5,0,-->,27.517773,3.321987,3.927963
0.5,0.5,0,0.5,0.5,0.5,0.5,-->,19.340336,8.520518,-2.140402
0.5,0.5,0,0.5,0.5,0.5,1,-->,12.244498,10.077568,-6.508861
0.5,0.5,0,0.5,0.5,1,0,-->,21.417263,-14.889585,2.571071
0.5,0.5,0,0.5,0.5,1,0.5,-->,15.466593,-4.154431,-1.494224
0.5,0.5,0,0.5,0.5,1,1,-->,12.295272,5.235382,-9.518079
0.5,0.5,0,0.5,1,0,0,-->,28.266514,24.435858,27.584536
0.5,0.5,0,0.5,1,0,0.5,-->,20.345037,24.002651,15.941535
0.5,0.5,0,0.5,1,0,1,-->,14.890135,10.198432,7.084454
0.5,0.5,0,0.5,1,0.5,0,-->,23.095850,12.855249,20.554169
0.5,0.5,0,0.5,1,0.5,0.5,-->,16.832138,12.873565,10.888156
0.5,0.5,0,0.5,1,0.5,1,-->,13.527290,10.801064,3.789803
0.5,0.5,0,0.5,1,1,0,-->,14.817665,2.079560,6.959015
0.5,0.5,0,0.5,1,1,0.5,-->,14.763265,2.203859,5.962982
0.5,0.5,0,0.5,1,1,1,-->,10.747490,5.134003,-0.237054
0.5,0.5,0,1,0,0,0,-->,14.415698,2.385170,0.113302
0.5,0.5,0,1,0,0,0.5,-->,12.384121,5.303064,-0.900643
0.5,0.5,0,1,0,0,1,-->,11.463744,7.152045,-0.874174
0.5,0.5,0,1,0,0.5,0,-->,10.469670,-2.396364,-0.811180
0.5,0.5,0,1,0,0.5,0.5,-->,13.326131,-0.041365,-0.310041
0.5,0.5,0,1,0,0.5,1,-->,11.328827,4.687330,-1.345158
0.5,0.5,0,1,0,1,0,-->,10.146265,-2.042824,-0.780699
0.5,0.5,0,1,0,1,0.5,-->,12.149134,-3.671994,0.256828
0.5,0.5,0,1,0,1,1,-->,11.018510,3.017912,-0.281041
0.5,0.5,0,1,0.5,0,0,-->,12.920983,2.300328,7.842042
0.5,0.5,0,1,0.5,0,0.5,-->,13.707630,0.553516,1.576923
0.5,0.5,0,1,0.5,0,1,-->,11.410062,4.556085,-0.519516
0.5,0.5,0,1,0.5,0.5,0,-->,13.796146,-0.627278,1.468386
0.5,0.5,0,1,0.5,0.5,0.5,-->,13.836554,-0.513634,0.647766
0.5,0.5,0,1,0.5,0.5,1,-->,11.326186,4.054436,-0.919840
0.5,0.5,0,1,0.5,1,0,-->,12.529187,-4.431717,1.304189
0.5,0.5,0,1,0.5,1,0.5,-->,12.477441,-4.492529,0.969685
0.5,0.5,0,1,0.5,1,1,-->,11.010509,2.497781,0.150267
0.5,0.5,0,1,1,0,0,-->,14.816313,-0.035407,9.424703
0.5,0.5,0,1,1,0,0.5,-->,14.831190,1.148412,8.430980
0.5,0.5,0,1,1,0,1,-->,11.465660,3.767581,2.754465
0.5,0.5,0,1,1,0.5,0,-->,15.000841,0.662950,8.528817
0.5,0.5,0,1,1,0.5,0.5,-->,14.827250,0.904359,8.138973
0.5,0.5,0,1,1,0.5,1,-->,11.403283,3.374637,2.423746
0.5,0.5,0,1,1,1,0,-->,12.351106,-2.696974,4.227889
0.5,0.5,0,1,1,1,0.5,-->,12.149158,-2.604677,3.808619
0.5,0.5,0,1,1,1,1,-->,10.982852,2.006953,1.947008
0.5,0.5,0.5,0,0,0,0,-->,54.833942,5.214407,6.002819
0.5,0.5,0.5,0,0,0,0.5,-->,35.615810,14.559945,-7.778692
0.5,0.5,0.5,0,0,0,1,-->,18.849022,25.781076,-23.106134
0.5,0.5,0.5,0,0,0.5,0,-->,45.063217,-18.335657,5.031485
0.5,0.5,0.5,0,0,0.5,0.5,-->,32.337791,-0.791756,-5.672511
0.5,0.5,0.5,0,0,0.5,1,-->,15.991277,15.075015,-19.548508
0.5,0.5,0.5,0,0,1,0,-->,37.146740,-45.651844,3.489786
0.5,0.5,0.5,0,0,1,0.5,-->,25.899792,-21.160404,-4.913060
0.5,0.5,0.5,0,0,1,1,-->,14.935653,4.428959,-14.345119
0.5,0.5,0.5,0,0.5,0,0,-->,45.431332,27.542070,26.654924
0.5,0.5,0.5,0,0.5,0,0.5,-->,33.131550,28.134291,13.451985
0.5,0.5,0.5,0,0.5,0,1,-->,16.746187,26.297621,-5.347020
0.5,0.5,0.5,0,0.5,0.5,0,-->,39.872688,4.479192,22.405931
0.5,0.5,0.5,0,0.5,0.5,0.5,-->,27.751911,11.233238,10.882183
0.5,0.5,0.5,0,0.5,0.5,1,-->,14.429291,15.559869,-3.964122
0.5,0.5,0.5,0,0.5,1,0,-->,30.896488,-24.849640,15.609950
0.5,0.5,0.5,0,0.5,1,0.5,-->,21.494827,-9.693591,7.181242
0.5,0.5,0.5,0,0.5,1,1,-->,13.303235,6.168277,-18.874910
0.5,0.5,0.5,0,1,0,0,-->,40.886395,40.716782,47.915955
0.5,0.5,0.5,0,1,0,0.5,-->,28.925823,38.201077,29.585037
0.5,0.5,0.5,0,1,0,1,-->,17.492456,21.743383,10.441316
0.5,0.5,0.5,0,1,0.5,0,-->,33.279350,22.329357,36.311756
0.5,0.5,0.5,0,1,0.5,0.5,-->,23.413826,21.542891,20.910727
0.5,0.5,0.5,0,1,0.5,1,-->,15.482804,19.916107,5.602883
0.5,0.5,0.5,0,1,1,0,-->,21.585884,1.329541,16.852575
0.5,0.5,0.5,0,1,1,0.5,-->,19.524937,2.929802,12.481745
0.5,0.5,0.5,0,1,1,1,-->,10.659873,7.384486,-1.593817
0.5,0.5,0.5,0.5,0,0,0,-->,37.157318,2.150783,4.973591
0.5,0.5,0.5,0.5,0,0,0.5,-->,26.217318,11.777186,-2.404199
0.5,0.5,0.5,0.5,0,0,1,-->,13.920230,16.361124,-11.622087
0.5,0.5,0.5,0.5,0,0.5,0,-->,32.351578,-10.627377,6.298671
0.5,0.5,0.5,0.5,0,0.5,0.5,-->,22.422167,0.161195,-1.502553
0.5,0.5,0.5,0.5,0,0.5,1,-->,12.762201,8.561845,-8.258545
0.5,0.5,0.5,0.5,0,1,0,-->,25.636377,-27.691948,5.395399
0.5,0.5,0.5,0.5,0,1,0.5,-->,17.992495,-11.635431,-0.599570
0.5,0.5,0.5,0.5,0,1,1,-->,12.761376,3.739721,-4.557848
0.5,0.5,0.5,0.5,0.5,0,0,-->,34.153652,15.261387,21.616577
0.5,0.5,0.5,0.5,0.5,0,0.5,-->,23.353247,18.322989,10.328918
0.5,0.5,0.5,0.5,0.5,0,1,-->,13.349024,14.580616,-0.787120
0.5,0.5,0.5,0.5,0.5,0.5,0,-->,28.002687,2.035877,16.777748
0.5,0.5,0.5,0.5,0.5,0.5,0.5,-->,19.421011,7.008549,8.414824
0.5,0.5,0.5,0.5,0.5,0.5,1,-->,13.135192,13.637095,-10.693911
0.5,0.5,0.5,0.5,0.5,1,0,-->,21.602043,-15.752647,11.708897
0.5,0.5,0.5,0.5,0.5,1,0.5,-->,21.440857,-15.654286,2.116312
0.5,0.5,0.5,0.5,0.5,1,1,-->,12.150191,4.631457,-10.903978
0.5,0.5,0.5,0.5,1,0,0,-->,29.559523,27.070499,32.794998
0.5,0.5,0.5,0.5,1,0,0.5,-->,20.591208,24.152531,18.097631
0.5,0.5,0.5,0.5,1,0,1,-->,14.863205,8.961082,8.010327
0.5,0.5,0.5,0.5,1,0.5,0,-->,23.634752,13.379196,22.882349
0.5,0.5,0.5,0.5,1,0.5,0.5,-->,23.428833,16.686432,20.992771
0.5,0.5,0.5,0.5,1,0.5,1,-->,13.571809,12.566632,4.040650
0.5,0.5,0.5,0.5,1,1,0,-->,14.837082,2.735830,7.631655
0.5,0.5,0.5,0.5,1,1,0.5,-->,15.995564,0.891470,8.255110
0.5,0.5,0.5,0.5,1,1,1,-->,10.722901,5.102738,-0.225533
0.5,0.5,0.5,1,0,0,0,-->,14.507251,-0.239440,3.394867
0.5,0.5,0.5,1,0,0,0.5,-->,13.824759,0.029555,0.837057
0.5,0.5,0.5,1,0,0,1,-->,11.371908,4.498556,-0.812488
0.5,0.5,0.5,1,0,0.5,0,-->,14.070167,-1.287325,0.974093
0.5,0.5,0.5,1,0,0.5,0.5,-->,13.925052,-0.706063,0.516126
0.5,0.5,0.5,1,0,0.5,1,-->,11.334578,4.006741,-0.942950
0.5,0.5,0.5,1,0,1,0,-->,12.725820,-5.033438,1.223724
0.5,0.5,0.5,1,0,1,0.5,-->,12.539678,-4.655381,0.982604
0.5,0.5,0.5,1,0,1,1,-->,11.023367,2.453931,0.166043
0.5,0.5,0.5,1,0.5,0,0,-->,14.309628,-0.409945,2.051441
0.5,0.5,0.5,1,0.5,0,0.5,-->,13.978767,-0.503595,0.799317
0.5,0.5,0.5,1,0.5,0,1,-->,11.332555,4.021605,-0.886568
0.5,0.5,0.5,1,0.5,0.5,0,-->,14.143437,-0.692490,0.818453
0.5,0.5,0.5,1,0.5,0.5,0.5,-->,13.995108,-0.665747,0.532496
0.5,0.5,0.5,1,0.5,0.5,1,-->,11.321029,3.956659,-0.937022
0.5,0.5,0.5,1,0.5,1,0,-->,12.702375,-4.623721,1.128836
0.5,0.5,0.5,1,0.5,1,0.5,-->,12.548253,-4.618979,1.002318
0.5,0.5,0.5,1,0.5,1,1,-->,11.010579,2.447122,0.186319
0.5,0.5,0.5,1,1,0,0,-->,15.278654,0.898675,9.008822
0.5,0.5,0.5,1,1,0,0.5,-->,14.886846,0.952647,8.232007
0.5,0.5,0.5,1,1,0,1,-->,11.407840,3.359118,2.420782
0.5,0.5,0.5,1,1,0.5,0,-->,15.034366,0.940396,8.293184
0.5,0.5,0.5,1,1,0.5,0.5,-->,14.856544,0.948999,8.127300
0.5,0.5,0.5,1,1,0.5,1,-->,11.400313,3.332596,2.391310
0.5,0.5,0.5,1,1,1,0,-->,12.309600,-2.567294,3.878855
0.5,0.5,0.5,1,1,1,0.5,-->,12.147578,-2.578929,3.758781
0.5,0.5,0.5,1,1,1,1,-->,10.982766,2.006953,1.950671
0.5,0.5,1,0,0,0,0,-->,52.482178,2.333842,41.372597
0.5,0.5,1,0,0,0,0.5,-->,34.615917,10.641382,19.476440
0.5,0.5,1,0,0,0,1,-->,19.379688,20.012835,-1.183515
0.5,0.5,1,0,0,0.5,0,-->,43.790237,-19.899069,30.801216
0.5,0.5,1,0,0,0.5,0.5,-->,31.264860,-3.551510,17.269472
0.5,0.5,1,0,0,0.5,1,-->,17.176649,7.545232,-1.196875
0.5,0.5,1,0,0,1,0,-->,36.603188,-45.969425,22.203218
0.5,0.5,1,0,0,1,0.5,-->,26.050320,-21.879135,9.520579
0.5,0.5,1,0,0,1,1,-->,15.736339,-2.057575,-2.377601
0.5,0.5,1,0,0.5,0,0,-->,44.960445,26.746225,46.117085
0.5,0.5,1,0,0.5,0,0.5,-->,32.569805,26.893278,29.563667
0.5,0.5,1,0,0.5,0,1,-->,18.319160,21.164736,7.737547
0.5,0.5,1,0,0.5,0.5,0,-->,39.439491,3.346746,39.130932
0.5,0.5,1,0,0.5,0.5,0.5,-->,27.096962,10.148534,22.805958
0.5,0.5,1,0,0.5,0.5,1,-->,17.278463,15.652720,1.782264
0.5,0.5,1,0,0.5,1,0,-->,31.812933,-24.164074,25.746559
0.5,0.5,1,0,0.5,1,0.5,-->,33.895691,-31.961126,23.701008
0.5,0.5,1,0,0.5,1,1,-->,14.010015,-1.429027,-1.379904
0.5,0.5,1,0,1,0,0,-->,41.223835,39.861313,51.569973
0.5,0.5,1,0,1,0,0.5,-->,30.224022,38.367447,32.410900
0.5,0.5,1,0,1,0,1,-->,19.766735,23.729992,15.262314
0.5,0.5,1,0,1,0.5,0,-->,34.866993,21.628113,39.578136
0.5,0.5,1,0,1,0.5,0.5,-->,37.390839,29.473566,43.539227
0.5,0.5,1,0,1,0.5,1,-->,17.930458,22.201973,11.345697
0.5,0.5,1,0,1,1,0,-->,24.887320,1.430752,22.790880
0.5,0.5,1,0,1,1,0.5,-->,23.241108,2.610057,19.775652
0.5,0.5,1,0,1,1,1,-->,12.375804,7.908098,2.100808
0.5,0.5,1,0.5,0,0,0,-->,35.696587,-0.471502,27.514605
0.5,0.5,1,0.5,0,0,0.5,-->,25.402096,9.060409,15.767794
0.5,0.5,1,0.5,0,0,1,-->,15.295029,9.406753,2.859567
0.5,0.5,1,0.5,0,0.5,0,-->,31.353531,-11.918836,24.259790
0.5,0.5,1,0.5,0,0.5,0.5,-->,21.736702,-1.764451,12.547846
0.5,0.5,1,0.5,0,0.5,1,-->,14.115884,2.083831,2.826767
0.5,0.5,1,0.5,0,1,0,-->,26.059738,-26.874369,16.071762
0.5,0.5,1,0.5,0,1,0.5,-->,18.544424,-11.568608,6.655943
0.5,0.5,1,0.5,0,1,1,-->,13.196834,-0.398393,-0.427576
0.5,0.5,1,0.5,0.5,0,0,-->,33.433903,13.646610,34.140141
0.5,0.5,1,0.5,0.5,0,0.5,-->,22.919256,16.998974,19.160616
0.5,0.5,1,0.5,0.5,0,1,-->,14.939918,9.339800,6.792933
0.5,0.5,1,0.5,0.5,0.5,0,-->,27.576509,0.938588,26.068447
0.5,0.5,1,0.5,0.5,0.5,0.5,-->,27.841429,2.260841,21.711632
0.5,0.5,1,0.5,0.5,0.5,1,-->,14.527096,9.805761,1.860616
0.5,0.5,1,0.5,0.5,1,0,-->,22.546904,-14.820048,15.695248
0.5,0.5,1,0.5,0.5,1,0.5,-->,24.885731,-21.223434,15.588686
0.5,0.5,1,0.5,0.5,1,1,-->,12.568088,-0.014128,-0.189374
0.5,0.5,1,0.5,1,0,0,-->,30.836779,26.818953,34.772034
0.5,0.5,1,0.5,1,0,0.5,-->,22.073450,24.438274,20.101202
0.5,0.5,1,0.5,1,0,1,-->,15.636402,14.826341,8.610604
0.5,0.5,1,0.5,1,0.5,0,-->,25.258410,13.379972,25.048977
0.5,0.5,1,0.5,1,0.5,0.5,-->,27.697838,18.474220,28.538118
0.5,0.5,1,0.5,1,0.5,1,-->,15.004561,14.305905,7.383604
0.5,0.5,1,0.5,1,1,0,-->,20.196068,0.170360,14.821538
0.5,0.5,1,0.5,1,1,0.5,-->,18.547335,0.636078,12.943648
0.5,0.5,1,0.5,1,1,1,-->,11.669035,4.425752,1.335499
0.5,0.5,1,1,0,0,0,-->,14.567577,-2.534107,6.113971
0.5,0.5,1,1,0,0,0.5,-->,13.707343,-2.006034,4.085852
0.5,0.5,1,1,0,0,1,-->,11.379224,3.488950,1.825886
0.5,0.5,1,1,0,0.5,0,-->,14.039752,-2.968310,4.324586
0.5,0.5,1,1,0,0.5,0.5,-->,13.722231,-2.470871,3.902961
0.5,0.5,1,1,0,0.5,1,-->,11.367169,3.061397,1.766366
0.5,0.5,1,1,0,1,0,-->,13.433120,-6.725464,4.536052
0.5,0.5,1,1,0,1,0.5,-->,13.135687,-6.261623,4.247739
0.5,0.5,1,1,0,1,1,-->,11.067791,1.519865,1.667708
0.5,0.5,1,1,0.5,0,0,-->,14.147054,-2.294256,4.862500
0.5,0.5,1,1,0.5,0,0.5,-->,13.728907,-2.323933,3.989018
0.5,0.5,1,1,0.5,0,1,-->,11.361286,3.087053,1.774847
0.5,0.5,1,1,0.5,0.5,0,-->,13.896844,-2.403409,4.061427
0.5,0.5,1,1,0.5,0.5,0.5,-->,13.704142,-2.387017,3.867547
0.5,0.5,1,1,0.5,0.5,1,-->,11.357232,3.045438,1.760818
0.5,0.5,1,1,0.5,1,0,-->,13.271721,-6.161719,4.333416
0.5,0.5,1,1,0.5,1,0.5,-->,13.097061,-6.140790,4.216094
0.5,0.5,1,1,0.5,1,1,-->,11.053857,1.548956,1.668042
0.5,0.5,1,1,1,0,0,-->,15.548974,1.852606,9.670260
0.5,0.5,1,1,1,0,0.5,-->,15.144952,1.828713,8.881362
0.5,0.5,1,1,1,0,1,-->,11.588980,3.537527,2.955808
0.5,0.5,1,1,1,0.5,0,-->,15.287921,1.845356,8.934772
0.5,0.5,1,1,1,0.5,0.5,-->,15.105266,1.823971,8.768311
0.5,0.5,1,1,1,0.5,1,-->,11.581922,3.530824,2.946445
0.5,0.5,1,1,1,1,0,-->,12.613164,-2.243400,4.457883
0.5,0.5,1,1,1,1,0.5,-->,12.451633,-2.263501,4.355455
0.5,0.5,1,1,1,1,1,-->,10.644821,-0.626077,0.229120
0.5,1,0,0,0,0,0,-->,36.884819,50.623520,-26.833506
0.5,1,0,0,0,0,0.5,-->,25.856379,41.225334,-29.610079
0.5,1,0,0,0,0,1,-->,17.264370,34.600086,-33.567986
0.5,1,0,0,0,0.5,0,-->,28.235901,26.976706,-26.261509
0.5,1,0,0,0,0.5,0.5,-->,20.340977,24.234028,-26.612244
0.5,1,0,0,0,0.5,1,-->,14.644911,22.573563,-27.750580
0.5,1,0,0,0,1,0,-->,20.925575,0.497963,-26.874422
0.5,1,0,0,0,1,0.5,-->,16.024601,8.542527,-24.873808
0.5,1,0,0,0,1,1,-->,13.528156,13.722682,-23.700560
0.5,1,0,0,0.5,0,0,-->,35.354839,47.390137,6.581893
0.5,1,0,0,0.5,0,0.5,-->,24.969227,36.675259,-1.520564
0.5,1,0,0,0.5,0,1,-->,16.940216,27.777916,-9.143115
0.5,1,0,0,0.5,0.5,0,-->,26.087055,27.262222,-0.105748
0.5,1,0,0,0.5,0.5,0.5,-->,19.372742,26.785059,-5.840522
0.5,1,0,0,0.5,0.5,1,-->,14.724662,17.813725,-9.494877
0.5,1,0,0,0.5,1,0,-->,17.384287,4.096279,-8.122452
0.5,1,0,0,0.5,1,0.5,-->,12.749863,10.317366,-11.617025
0.5,1,0,0,0.5,1,1,-->,10.578668,11.095017,-15.291436
0.5,1,0,0,1,0,0,-->,34.579052,47.120033,34.126205
0.5,1,0,0,1,0,0.5,-->,24.403780,35.667099,18.346897
0.5,1,0,0,1,0,1,-->,17.484550,26.169523,7.887837
0.5,1,0,0,1,0.5,0,-->,24.855234,28.674820,19.174812
0.5,1,0,0,1,0.5,0.5,-->,20.988413,21.741802,13.606925
0.5,1,0,0,1,0.5,1,-->,15.306452,23.678331,5.099030
0.5,1,0,0,1,1,0,-->,16.760525,7.144597,6.938253
0.5,1,0,0,1,1,0.5,-->,14.012424,11.167897,3.076262
0.5,1,0,0,1,1,1,-->,10.289927,9.944363,-2.531295
0.5,1,0,0.5,0,0,0,-->,25.279182,32.295994,-16.952639
0.5,1,0,0.5,0,0,0.5,-->,18.899273,25.401310,-17.426601
0.5,1,0,0.5,0,0,1,-->,13.861198,20.514742,-18.533020
0.5,1,0,0.5,0,0.5,0,-->,20.165834,15.975065,-15.802319
0.5,1,0,0.5,0,0.5,0.5,-->,15.956579,15.415339,-14.116181
0.5,1,0,0.5,0,0.5,1,-->,13.753695,11.548728,-11.999369
0.5,1,0,0.5,0,1,0,-->,15.235238,0.020739,-15.722310
0.5,1,0,0.5,0,1,0.5,-->,11.383808,6.093999,-15.195408
0.5,1,0,0.5,0,1,1,-->,11.983680,8.145782,-9.958429
0.5,1,0,0.5,0.5,0,0,-->,25.441259,28.076715,6.311560
0.5,1,0,0.5,0.5,0,0.5,-->,17.999004,27.267815,-0.634627
0.5,1,0,0.5,0.5,0,1,-->,14.705239,15.666628,-3.545970
0.5,1,0,0.5,0.5,0.5,0,-->,19.805567,17.375517,1.849718
0.5,1,0,0.5,0.5,0.5,0.5,-->,14.744367,16.087904,-1.656962
0.5,1,0,0.5,0.5,0.5,1,-->,13.007498,14.056380,-7.660800
0.5,1,0,0.5,0.5,1,0,-->,13.458164,2.747366,-4.783503
0.5,1,0,0.5,0.5,1,0.5,-->,12.374939,4.821386,-8.042451
0.5,1,0,0.5,0.5,1,1,-->,10.559097,7.356033,-8.295076
0.5,1,0,0.5,1,0,0,-->,24.979239,27.443382,23.172001
0.5,1,0,0.5,1,0,0.5,-->,20.491091,21.236080,15.546174
0.5,1,0,0.5,1,0,1,-->,16.011986,14.151254,8.843197
0.5,1,0,0.5,1,0.5,0,-->,21.738111,13.637354,17.601986
0.5,1,0,0.5,1,0.5,0.5,-->,20.364145,19.307880,14.858152
0.5,1,0,0.5,1,0.5,1,-->,13.579151,14.928844,4.019310
0.5,1,0,0.5,1,1,0,-->,13.860051,2.950701,5.222007
0.5,1,0,0.5,1,1,0.5,-->,12.820560,5.755574,2.889281
0.5,1,0,0.5,1,1,1,-->,10.434606,5.709338,-1.486397
0.5,1,0,1,0,0,0,-->,13.554025,6.526933,3.178552
0.5,1,0,1,0,0,0.5,-->,12.613317,5.879645,1.084865
0.5,1,0,1,0,0,1,-->,11.411297,7.464312,0.009629
0.5,1,0,1,0,0.5,0,-->,10.565678,0.359985,0.858579
0.5,1,0,1,0,0.5,0.5,-->,12.327521,4.036394,1.923358
0.5,1,0,1,0,0.5,1,-->,11.207892,4.872851,-0.028217
0.5,1,0,1,0,1,0,-->,9.333115,0.292227,-0.420356
0.5,1,0,1,0,1,0.5,-->,10.630372,0.600907,-0.357538
0.5,1,0,1,0,1,1,-->,10.788805,3.074651,0.157076
0.5,1,0,1,0.5,0,0,-->,14.325525,1.751440,9.355942
0.5,1,0,1,0.5,0,0.5,-->,12.887585,4.115840,3.724112
0.5,1,0,1,0.5,0,1,-->,11.274206,4.725449,0.730268
0.5,1,0,1,0.5,0.5,0,-->,12.823054,3.452365,3.531036
0.5,1,0,1,0.5,0.5,0.5,-->,12.622044,3.860068,2.844018
0.5,1,0,1,0.5,0.5,1,-->,11.180612,4.194450,0.460573
0.5,1,0,1,0.5,1,0,-->,10.951404,0.130432,0.521780
0.5,1,0,1,0.5,1,0.5,-->,10.836991,0.186942,0.172534
0.5,1,0,1,0.5,1,1,-->,10.774880,2.618386,0.620484
0.5,1,0,1,1,0,0,-->,15.138266,1.796278,11.965353
0.5,1,0,1,1,0,0.5,-->,14.637100,3.355060,8.504027
0.5,1,0,1,1,0,1,-->,11.547520,4.210319,2.933404
0.5,1,0,1,1,0.5,0,-->,14.757577,3.031743,8.430570
0.5,1,0,1,1,0.5,0.5,-->,14.513453,3.199071,7.784042
0.5,1,0,1,1,0.5,1,-->,11.463083,3.847575,2.647310
0.5,1,0,1,1,1,0,-->,11.980988,-1.247830,3.524622
0.5,1,0,1,1,1,0.5,-->,11.761036,-1.211968,3.144263
0.5,1,0,1,1,1,1,-->,10.644278,-0.431816,0.023278
0.5,1,0.5,0,0,0,0,-->,36.321594,43.872955,-2.167951
0.5,1,0.5,0,0,0,0.5,-->,25.712568,35.720978,-9.017334
0.5,1,0.5,0,0,0,1,-->,17.288633,28.559153,-15.571352
0.5,1,0.5,0,0,0.5,0,-->,27.922804,22.067657,-6.182876
0.5,1,0.5,0,0,0.5,0.5,-->,21.678591,21.941565,-8.697536
0.5,1,0.5,0,0,0.5,1,-->,15.640428,16.630287,-12.920705
0.5,1,0.5,0,0,1,0,-->,20.369358,-4.438017,-10.756182
0.5,1,0.5,0,0,1,0.5,-->,14.705565,4.448307,-13.883840
0.5,1,0.5,0,0,1,1,-->,13.114397,8.650517,-12.917719
0.5,1,0.5,0,0.5,0,0,-->,35.266933,45.193218,21.276722
0.5,1,0.5,0,0.5,0,0.5,-->,24.561563,42.684181,8.857499
0.5,1,0.5,0,0.5,0,1,-->,16.956579,26.008289,-1.354339
0.5,1,0.5,0,0.5,0.5,0,-->,27.623314,28.439947,12.698713
0.5,1,0.5,0,0.5,0.5,0.5,-->,19.630455,26.145903,5.337080
0.5,1,0.5,0,0.5,0.5,1,-->,14.401990,24.303944,-15.056828
0.5,1,0.5,0,0.5,1,0,-->,18.100937,3.426922,0.733931
0.5,1,0.5,0,0.5,1,0.5,-->,14.843491,6.534775,-13.414579
0.5,1,0.5,0,0.5,1,1,-->,10.516093,10.701571,-14.413090
0.5,1,0.5,0,1,0,0,-->,34.661720,46.779114,38.700855
0.5,1,0.5,0,1,0,0.5,-->,26.255585,39.188747,24.377615
0.5,1,0.5,0,1,0,1,-->,18.083487,25.045391,10.995325
0.5,1,0.5,0,1,0.5,0,-->,28.404322,28.248861,27.443624
0.5,1,0.5,0,1,0.5,0.5,-->,27.695414,37.541977,25.463734
0.5,1,0.5,0,1,0.5,1,-->,15.314878,23.543695,5.367189
0.5,1,0.5,0,1,1,0,-->,17.712831,7.867440,9.891622
0.5,1,0.5,0,1,1,0.5,-->,14.125133,11.309553,3.448155
0.5,1,0.5,0,1,1,1,-->,10.282673,9.933084,-2.465688
0.5,1,0.5,0.5,0,0,0,-->,25.057831,26.527859,-0.452548
0.5,1,0.5,0.5,0,0,0.5,-->,18.981941,24.958847,-2.768691
0.5,1,0.5,0.5,0,0,1,-->,14.841358,15.153898,-5.312936
0.5,1,0.5,0.5,0,0.5,0,-->,21.327629,12.912308,0.586407
0.5,1,0.5,0.5,0,0.5,0.5,-->,16.008347,13.266844,-2.618462
0.5,1,0.5,0.5,0,0.5,1,-->,13.807241,8.810078,-3.828120
0.5,1,0.5,0.5,0,1,0,-->,14.294915,-1.548083,-5.749950
0.5,1,0.5,0.5,0,1,0.5,-->,10.670300,4.445845,-7.967200
0.5,1,0.5,0.5,0,1,1,-->,11.323792,6.571770,-7.742449
0.5,1,0.5,0.5,0.5,0,0,-->,25.082552,30.488083,14.921199
0.5,1,0.5,0.5,0.5,0,0.5,-->,17.759172,26.862377,6.841160
0.5,1,0.5,0.5,0.5,0,1,-->,14.730994,13.590966,1.740831
0.5,1,0.5,0.5,0.5,0.5,0,-->,19.985960,17.111523,9.861193
0.5,1,0.5,0.5,0.5,0.5,0.5,-->,18.877794,21.268909,1.150905
0.5,1,0.5,0.5,0.5,0.5,1,-->,12.899096,15.316378,-8.320764
0.5,1,0.5,0.5,0.5,1,0,-->,13.029298,2.720814,-0.219393
0.5,1,0.5,0.5,0.5,1,0.5,-->,12.712034,3.921762,-7.845492
0.5,1,0.5,0.5,0.5,1,1,-->,10.494397,7.205576,-8.015373
0.5,1,0.5,0.5,1,0,0,-->,26.865519,28.078737,27.129108
0.5,1,0.5,0.5,1,0,0.5,-->,20.827942,20.751135,17.167927
0.5,1,0.5,0.5,1,0,1,-->,14.316903,15.470908,5.522722
0.5,1,0.5,0.5,1,0.5,0,-->,22.299341,13.897443,19.280493
0.5,1,0.5,0.5,1,0.5,0.5,-->,21.915453,23.003670,17.760786
0.5,1,0.5,0.5,1,0.5,1,-->,13.435730,14.987650,3.811264
0.5,1,0.5,0.5,1,1,0,-->,14.973211,5.036364,5.584750
0.5,1,0.5,0.5,1,1,0.5,-->,12.936394,6.025603,2.964457
0.5,1,0.5,0.5,1,1,1,-->,10.429861,5.701997,-1.448421
0.5,1,0.5,1,0,0,0,-->,13.872833,3.345546,5.034996
0.5,1,0.5,1,0,0,0.5,-->,12.758583,4.285707,2.976722
0.5,1,0.5,1,0,0,1,-->,11.238172,4.651779,0.489026
0.5,1,0.5,1,0,0.5,0,-->,12.851243,3.324115,3.052657
0.5,1,0.5,1,0,0.5,0.5,-->,12.627037,3.849323,2.721482
0.5,1,0.5,1,0,0.5,1,-->,11.185562,4.147637,0.448232
0.5,1,0.5,1,0,1,0,-->,11.055699,-0.245079,0.394563
0.5,1,0.5,1,0,1,0.5,-->,10.866045,0.101629,0.165846
0.5,1,0.5,1,0,1,1,-->,10.784622,2.578306,0.631610
0.5,1,0.5,1,0.5,0,0,-->,13.174458,3.833379,3.982726
0.5,1,0.5,1,0.5,0,0.5,-->,12.698534,3.936262,2.944424
0.5,1,0.5,1,0.5,0,1,-->,11.182827,4.151923,0.493206
0.5,1,0.5,1,0.5,0.5,0,-->,12.819452,3.875283,2.961721
0.5,1,0.5,1,0.5,0.5,0.5,-->,12.631461,3.914436,2.751805
0.5,1,0.5,1,0.5,0.5,1,-->,11.170687,4.086703,0.476912
0.5,1,0.5,1,0.5,1,0,-->,11.025213,0.167351,0.289902
0.5,1,0.5,1,0.5,1,0.5,-->,10.869353,0.157851,0.183371
0.5,1,0.5,1,0.5,1,1,-->,10.774433,2.579492,0.661081
0.5,1,0.5,1,1,0,0,-->,14.946480,3.186593,8.655761
0.5,1,0.5,1,1,0,0.5,-->,14.537738,3.214407,7.783312
0.5,1,0.5,1,1,0,1,-->,11.463316,3.830643,2.637461
0.5,1,0.5,1,1,0.5,0,-->,14.678267,3.243118,7.817313
0.5,1,0.5,1,1,0.5,0.5,-->,14.494498,3.219727,7.635075
0.5,1,0.5,1,1,0.5,1,-->,11.454805,3.810808,2.621852
0.5,1,0.5,1,1,1,0,-->,11.913886,-1.164121,3.203357
0.5,1,0.5,1,1,1,0.5,-->,11.751528,-1.199793,3.102070
0.5,1,0.5,1,1,1,1,-->,10.644278,-0.431816,0.027153
0.5,1,1,0,0,0,0,-->,36.082275,39.672009,21.599037
0.5,1,1,0,0,0,0.5,-->,25.275812,32.940197,8.942842
0.5,1,1,0,0,0,1,-->,18.026178,26.235334,-1.056328
0.5,1,1,0,0,0.5,0,-->,27.615934,19.077066,11.485848
0.5,1,1,0,0,0.5,0.5,-->,21.870993,19.739780,5.697802
0.5,1,1,0,0,0.5,1,-->,16.535543,15.181728,-1.161317
0.5,1,1,0,0,1,0,-->,20.964752,-5.971911,2.258652
0.5,1,1,0,0,1,0.5,-->,15.399706,3.591149,-3.838858
0.5,1,1,0,0,1,1,-->,11.160972,8.830354,-4.896509
0.5,1,1,0,0.5,0,0,-->,35.047691,44.409988,33.549942
0.5,1,1,0,0.5,0,0.5,-->,24.856400,41.606056,17.628006
0.5,1,1,0,0.5,0,1,-->,18.054457,25.591801,6.830688
0.5,1,1,0,0.5,0.5,0,-->,27.958437,27.342854,21.866800
0.5,1,1,0,0.5,0.5,0.5,-->,28.147194,36.357796,18.889782
0.5,1,1,0,0.5,0.5,1,-->,15.529744,23.240625,1.329967
0.5,1,1,0,0.5,1,0,-->,19.104538,3.579431,7.365107
0.5,1,1,0,0.5,1,0.5,-->,15.696830,6.287166,0.852879
0.5,1,1,0,0.5,1,1,-->,10.640186,9.354695,-4.796589
0.5,1,1,0,1,0,0,-->,35.063030,46.673512,40.936047
0.5,1,1,0,1,0,0.5,-->,26.966530,40.416233,27.126387
0.5,1,1,0,1,0,1,-->,16.874680,26.061213,9.325923
0.5,1,1,0,1,0.5,0,-->,29.150423,29.294384,30.221975
0.5,1,1,0,1,0.5,0.5,-->,28.263149,38.337124,28.546507
0.5,1,1,0,1,0.5,1,-->,16.427813,25.541872,8.617489
0.5,1,1,0,1,1,0,-->,18.751867,14.400064,9.507690
0.5,1,1,0,1,1,0.5,-->,15.508005,14.771091,6.483129
0.5,1,1,0,1,1,1,-->,7.076189,7.236096,-9.890057
0.5,1,1,0.5,0,0,0,-->,24.933430,22.959211,13.844930
0.5,1,1,0.5,0,0,0.5,-->,19.478897,22.933510,7.967845
0.5,1,1,0.5,0,0,1,-->,15.783243,14.379348,3.881590
0.5,1,1,0.5,0,0.5,0,-->,21.800959,11.011239,11.373283
0.5,1,1,0.5,0,0.5,0.5,-->,16.598555,11.860387,5.111250
0.5,1,1,0.5,0,0.5,1,-->,14.004597,12.996511,0.887701
0.5,1,1,0.5,0,1,0,-->,14.943245,-1.679122,1.505487
0.5,1,1,0.5,0,1,0.5,-->,13.679674,2.266495,-0.183675
0.5,1,1,0.5,0,1,1,-->,10.955450,5.184920,-2.810861
0.5,1,1,0.5,0.5,0,0,-->,25.409491,28.979548,21.345181
0.5,1,1,0.5,0.5,0,0.5,-->,18.366695,25.747608,10.817754
0.5,1,1,0.5,0.5,0,1,-->,14.302378,15.807524,2.992818
0.5,1,1,0.5,0.5,0.5,0,-->,20.586157,16.205362,14.008625
0.5,1,1,0.5,0.5,0.5,0.5,-->,21.278698,21.953482,12.320786
0.5,1,1,0.5,0.5,0.5,1,-->,13.476942,15.114609,1.345455
0.5,1,1,0.5,0.5,1,0,-->,15.629381,2.508390,3.618645
0.5,1,1,0.5,0.5,1,0.5,-->,13.651477,3.393423,1.039434
0.5,1,1,0.5,0.5,1,1,-->,10.642983,5.505031,-2.748453
0.5,1,1,0.5,1,0,0,-->,27.453243,29.142361,29.493357
0.5,1,1,0.5,1,0,0.5,-->,22.515892,25.650349,20.142513
0.5,1,1,0.5,1,0,1,-->,14.500197,15.859019,5.940366
0.5,1,1,0.5,1,0.5,0,-->,24.003088,22.670124,21.495363
0.5,1,1,0.5,1,0.5,0.5,-->,22.404593,24.663906,19.595282
0.5,1,1,0.5,1,0.5,1,-->,14.234734,15.552208,5.522403
0.5,1,1,0.5,1,1,0,-->,15.659295,8.390551,5.980567
0.5,1,1,0.5,1,1,0.5,-->,13.674296,8.595070,4.155434
0.5,1,1,0.5,1,1,1,-->,8.588405,3.867607,-5.744714
0.5,1,1,1,0,0,0,-->,14.534968,0.764618,6.958453
0.5,1,1,1,0,0,0.5,-->,13.275641,1.399032,4.580874
0.5,1,1,1,0,0,1,-->,11.321463,4.325361,1.954197
0.5,1,1,1,0,0.5,0,-->,13.449411,0.678362,4.672556
0.5,1,1,1,0,0.5,0.5,-->,13.092950,1.044951,4.240702
0.5,1,1,1,0,0.5,1,-->,11.277864,3.945564,1.912338
0.5,1,1,1,0,1,0,-->,11.593749,-1.184283,2.002348
0.5,1,1,1,0,1,0.5,-->,11.323554,-0.833295,1.757246
0.5,1,1,1,0,1,1,-->,10.658030,-0.105764,0.215471
0.5,1,1,1,0.5,0,0,-->,13.561646,1.133791,5.146147
0.5,1,1,1,0.5,0,0.5,-->,13.097651,1.122011,4.298975
0.5,1,1,1,0.5,0,1,-->,11.271334,3.961751,1.914573
0.5,1,1,1,0.5,0.5,0,-->,13.237828,1.110460,4.345150
0.5,1,1,1,0.5,0.5,0.5,-->,13.039491,1.097009,4.170983
0.5,1,1,1,0.5,0.5,1,-->,11.264305,3.936399,1.911533
0.5,1,1,1,0.5,1,0,-->,11.464340,-0.735223,1.835036
0.5,1,1,1,0.5,1,0.5,-->,11.297648,-0.751531,1.737928
0.5,1,1,1,0.5,1,1,-->,10.646927,-0.080411,0.219347
0.5,1,1,1,1,0,0,-->,15.006166,4.205895,8.666658
0.5,1,1,1,1,0,0.5,-->,14.602489,4.152865,7.931459
0.5,1,1,1,1,0,1,-->,11.057332,1.063570,1.030573
0.5,1,1,1,1,0.5,0,-->,14.744568,4.194937,7.983136
0.5,1,1,1,1,0.5,0.5,-->,14.564760,4.151042,7.843638
0.5,1,1,1,1,0.5,1,-->,11.053403,1.063570,1.030558
0.5,1,1,1,1,1,0,-->,11.174364,-0.322960,0.863747
0.5,1,1,1,1,1,0.5,-->,11.015438,-0.362797,0.780394
0.5,1,1,1,1,1,1,-->,10.642756,-0.431816,0.034859
1,0,0,0,0,0,0,-->,59.137268,-37.727627,-49.575878
1,0,0,0,0,0,0.5,-->,38.117550,-2.529365,-54.027515
1,0,0,0,0,0,1,-->,20.507366,34.926075,-61.723736
1,0,0,0,0,0.5,0,-->,53.341461,-52.935978,-34.001972
1,0,0,0,0,0.5,0.5,-->,34.655674,-16.525564,-39.986561
1,0,0,0,0,0.5,1,-->,19.877968,18.138533,-47.581032
1,0,0,0,0,1,0,-->,48.280163,-65.194550,-21.642019
1,0,0,0,0,1,0.5,-->,31.915382,-27.001312,-29.162796
1,0,0,0,0,1,1,-->,19.642506,5.953300,-37.202335
1,0,0,0,0.5,0,0,-->,40.998535,-19.509293,-20.732311
1,0,0,0,0.5,0,0.5,-->,26.657763,0.431421,-25.140797
1,0,0,0,0.5,0,1,-->,15.950062,18.464357,-30.220486
1,0,0,0,0.5,0.5,0,-->,36.047592,-30.210089,-12.982118
1,0,0,0,0.5,0.5,0.5,-->,23.777624,-8.384805,-18.050194
1,0,0,0,0.5,0.5,1,-->,15.122933,9.971067,-23.395634
1,0,0,0,0.5,1,0,-->,32.021130,-39.234550,-7.578169
1,0,0,0,0.5,1,0.5,-->,21.826530,-15.136214,-13.515928
1,0,0,0,0.5,1,1,-->,14.891097,3.893704,-17.531187
1,0,0,0,1,0,0,-->,28.408140,1.000008,15.642020
1,0,0,0,1,0,0.5,-->,19.838224,6.269489,4.719354
1,0,0,0,1,0,1,-->,13.969996,10.396888,-2.252922
1,0,0,0,1,0.5,0,-->,24.097902,-6.741674,11.200864
1,0,0,0,1,0.5,0.5,-->,16.823820,0.397831,2.700705
1,0,0,0,1,0.5,1,-->,13.073579,6.465254,-1.392587
1,0,0,0,1,1,0,-->,20.496727,-13.389106,8.062263
1,0,0,0,1,1,0.5,-->,15.783188,-2.371962,2.019918
1,0,0,0,1,1,1,-->,12.678025,3.961082,-1.159531
1,0,0,0.5,0,0,0,-->,39.172169,-27.084864,-32.361862
1,0,0,0.5,0,0,0.5,-->,25.976395,-1.999574,-34.488159
1,0,0,0.5,0,0,1,-->,15.503064,20.800852,-37.613621
1,0,0,0.5,0,0.5,0,-->,35.583832,-35.616043,-21.871634
1,0,0,0.5,0,0.5,0.5,-->,23.964653,-9.657333,-24.915598
1,0,0,0.5,0,0.5,1,-->,15.170510,11.619647,-28.265224
1,0,0,0.5,0,1,0,-->,32.105553,-42.155964,-14.095899
1,0,0,0.5,0,1,0.5,-->,22.154402,-14.838280,-17.999924
1,0,0,0.5,0,1,1,-->,14.956932,5.166758,-21.545916
1,0,0,0.5,0.5,0,0,-->,28.766064,-13.968712,-10.089629
1,0,0,0.5,0.5,0,0.5,-->,19.893616,0.031272,-13.075258
1,0,0,0.5,0.5,0,1,-->,13.144529,11.644224,-16.373215
1,0,0,0.5,0.5,0.5,0,-->,25.431030,-19.682131,-5.931079
1,0,0,0.5,0.5,0.5,0.5,-->,19.287754,-6.705903,-9.625256
1,0,0,0.5,0.5,0.5,1,-->,13.708089,10.688394,-12.436148
1,0,0,0.5,0.5,1,0,-->,22.265770,-24.762108,-3.647713
1,0,0,0.5,0.5,1,0.5,-->,19.232216,-11.119306,-4.157783
1,0,0,0.5,0.5,1,1,-->,13.553164,3.574597,-11.465786
1,0,0,0.5,1,0,0,-->,21.792034,-1.707317,13.041182
1,0,0,0.5,1,0,0.5,-->,15.947306,3.299462,5.045696
1,0,0,0.5,1,0,1,-->,12.547046,7.232677,0.850554
1,0,0,0.5,1,0.5,0,-->,18.613260,-6.138958,9.201807
1,0,0,0.5,1,0.5,0.5,-->,13.507973,-1.128395,1.274034
1,0,0,0.5,1,0.5,1,-->,12.257908,4.960535,0.075396
1,0,0,0.5,1,1,0,-->,16.190628,-9.284125,6.718214
1,0,0,0.5,1,1,0.5,-->,14.284381,-3.834762,3.187854
1,0,0,0.5,1,1,1,-->,11.831888,2.057916,-0.579021
1,0,0,1,0,0,0,-->,13.396970,-4.486382,-5.221786
1,0,0,1,0,0,0.5,-->,12.642586,3.336928,-4.146201
1,0,0,1,0,0,1,-->,11.544132,6.529182,-3.560310
1,0,0,1,0,0.5,0,-->,14.261131,-6.652812,-2.080252
1,0,0,1,0,0.5,0.5,-->,10.485164,1.960885,-1.718237
1,0,0,1,0,0.5,1,-->,10.821016,4.039860,-0.185270
1,0,0,1,0,1,0,-->,13.656883,-8.910506,-0.735405
1,0,0,1,0,1,0.5,-->,10.793015,1.940123,-0.736651
1,0,0,1,0,1,1,-->,11.294858,4.529182,-1.171204
1,0,0,1,0.5,0,0,-->,13.359308,-3.897702,4.448702
1,0,0,1,0.5,0,0.5,-->,10.548406,2.977239,2.616775
1,0,0,1,0.5,0,1,-->,10.545284,4.189648,2.831798
1,0,0,1,0.5,0.5,0,-->,11.903795,-4.580009,4.310633
1,0,0,1,0.5,0.5,0.5,-->,11.839687,-2.177534,-1.235413
1,0,0,1,0.5,0.5,1,-->,11.009691,3.138046,-1.148078
1,0,0,1,0.5,1,0,-->,10.844355,-5.033385,3.252192
1,0,0,1,0.5,1,0.5,-->,11.891538,-4.437865,0.189754
1,0,0,1,0.5,1,1,-->,10.978640,2.133715,-0.512068
1,0,0,1,1,0,0,-->,16.207386,-4.284050,10.852134
1,0,0,1,1,0,0.5,-->,12.482617,-0.316485,6.669592
1,0,0,1,1,0,1,-->,11.595811,4.867698,3.587547
1,0,0,1,1,0.5,0,-->,13.329432,-5.846594,8.077219
1,0,0,1,1,0.5,0.5,-->,13.349599,-2.748803,6.022578
1,0,0,1,1,0.5,1,-->,11.151643,2.370366,2.098605
1,0,0,1,1,1,0,-->,12.782903,-5.381324,5.536964
1,0,0,1,1,1,0.5,-->,11.856521,-3.390132,3.294066
1,0,0,1,1,1,1,-->,10.604795,-0.704277,0.264595
1,0,0.5,0,0,0,0,-->,54.979748,-58.730076,-10.715813
1,0,0.5,0,0,0,0.5,-->,35.440384,-22.714802,-22.934254
1,0,0.5,0,0,0,1,-->,19.128935,14.585266,-36.171162
1,0,0.5,0,0,0.5,0,-->,50.134193,-67.564026,-3.135569
1,0,0.5,0,0,0.5,0.5,-->,32.494102,-31.633104,-14.743125
1,0,0.5,0,0,0.5,1,-->,18.511114,3.317579,-26.875578
1,0,0.5,0,0,1,0,-->,46.039234,-73.859047,1.902338
1,0,0.5,0,0,1,0.5,-->,30.407242,-37.518032,-9.400612
1,0,0.5,0,0,1,1,-->,18.692970,-4.796452,-19.953861
1,0,0.5,0,0.5,0,0,-->,39.554859,-28.037138,5.255810
1,0,0.5,0,0.5,0,0.5,-->,25.827440,-8.454166,-5.087912
1,0,0.5,0,0.5,0,1,-->,15.626912,9.791900,-14.841365
1,0,0.5,0,0.5,0.5,0,-->,35.078693,-37.105137,7.430615
1,0,0.5,0,0.5,0.5,0.5,-->,26.120180,-18.654879,-0.624679
1,0,0.5,0,0.5,0.5,1,-->,15.454904,8.445556,-11.301300
1,0,0.5,0,0.5,1,0,-->,31.683149,-44.077126,7.688059
1,0,0.5,0,0.5,1,0.5,-->,25.188187,-25.045208,3.348707
1,0,0.5,0,0.5,1,1,-->,13.535254,2.858488,-20.871641
1,0,0.5,0,1,0,0,-->,29.485222,-1.139627,23.890268
1,0,0.5,0,1,0,0.5,-->,20.202833,4.605801,11.011543
1,0,0.5,0,1,0,1,-->,14.564380,9.080715,2.963833
1,0,0.5,0,1,0.5,0,-->,24.900064,-9.056320,18.091841
1,0,0.5,0,1,0.5,0.5,-->,17.489252,-2.880618,7.159325
1,0,0.5,0,1,0.5,1,-->,10.711317,6.054709,-2.869082
1,0,0.5,0,1,1,0,-->,21.906176,-16.034767,14.323248
1,0,0.5,0,1,1,0.5,-->,14.705673,-7.448033,3.357234
1,0,0.5,0,1,1,1,-->,9.668550,2.533848,-2.947859
1,0,0.5,0.5,0,0,0,-->,36.803593,-39.183300,-7.253674
1,0,0.5,0.5,0,0,0.5,-->,24.396925,-13.019462,-14.422499
1,0,0.5,0.5,0,0,1,-->,14.636337,9.708335,-20.751917
1,0,0.5,0.5,0,0.5,0,-->,33.697773,-43.755714,-1.914375
1,0,0.5,0.5,0,0.5,0.5,-->,23.041182,-19.256630,-9.477558
1,0,0.5,0.5,0,0.5,1,-->,14.917310,7.308794,-14.746697
1,0,0.5,0.5,0,1,0,-->,30.870810,-47.208149,1.911472
1,0,0.5,0.5,0,1,0.5,-->,22.738947,-21.551357,-3.501596
1,0,0.5,0.5,0,1,1,-->,15.256606,1.761122,-9.757177
1,0,0.5,0.5,0.5,0,0,-->,27.918324,-18.226345,5.142105
1,0,0.5,0.5,0.5,0,0.5,-->,21.271015,-5.788161,0.154294
1,0,0.5,0.5,0.5,0,1,-->,14.242774,11.208540,-7.153435
1,0,0.5,0.5,0.5,0.5,0,-->,26.561672,-24.383087,7.477520
1,0,0.5,0.5,0.5,0.5,0.5,-->,18.948795,-10.872075,1.370776
1,0,0.5,0.5,0.5,0.5,1,-->,13.037461,9.074620,-13.720995
1,0,0.5,0.5,0.5,1,0,-->,25.231421,-29.285826,9.079331
1,0,0.5,0.5,0.5,1,0.5,-->,20.752867,-19.672167,-2.292037
1,0,0.5,0.5,0.5,1,1,-->,12.298116,2.695446,-12.275553
1,0,0.5,0.5,1,0,0,-->,22.218035,-2.352826,17.874462
1,0,0.5,0.5,1,0,0.5,-->,15.610271,3.320589,6.013580
1,0,0.5,0.5,1,0,1,-->,12.766853,5.622566,1.923936
1,0,0.5,0.5,1,0.5,0,-->,18.844296,-8.557201,11.226536
1,0,0.5,0.5,1,0.5,0.5,-->,15.738770,-1.939363,6.115065
1,0,0.5,0.5,1,0.5,1,-->,10.777244,4.282499,-0.836518
1,0,0.5,0.5,1,1,0,-->,16.484901,-10.119974,7.709444
1,0,0.5,0.5,1,1,0.5,-->,13.200171,-5.536523,2.982908
1,0,0.5,0.5,1,1,1,-->,10.049757,1.212583,-1.630698
1,0,0.5,1,0,0,0,-->,13.881095,-7.140706,-0.206154
1,0,0.5,1,0,0,0.5,-->,10.161922,1.287728,-0.442577
1,0,0.5,1,0,0,1,-->,10.269725,4.560037,0.793025
1,0,0.5,1,0,0.5,0,-->,13.941845,-8.719970,1.730769
1,0,0.5,1,0,0.5,0.5,-->,12.162982,-3.033491,-1.702970
1,0,0.5,1,0,0.5,1,-->,11.122286,3.012349,-1.251068
1,0,0.5,1,0,1,0,-->,13.902418,-10.719985,3.156240
1,0,0.5,1,0,1,0.5,-->,12.448935,-5.447365,0.275310
1,0,0.5,1,0,1,1,-->,11.120929,1.926747,-0.386781
1,0,0.5,1,0.5,0,0,-->,12.818335,-4.481328,7.176044
1,0,0.5,1,0.5,0,0.5,-->,12.062033,-2.169478,-0.592373
1,0,0.5,1,0.5,0,1,-->,11.093011,3.364195,-0.889054
1,0,0.5,1,0.5,0.5,0,-->,12.484403,-3.962321,-0.349604
1,0,0.5,1,0.5,0.5,0.5,-->,12.053231,-2.726270,-1.867296
1,0,0.5,1,0.5,0.5,1,-->,11.069827,2.978014,-1.499202
1,0,0.5,1,0.5,1,0,-->,12.503238,-5.997051,0.933982
1,0,0.5,1,0.5,1,0.5,-->,12.184044,-4.986062,-0.000281
1,0,0.5,1,0.5,1,1,-->,10.962612,1.933025,-0.440662
1,0,0.5,1,1,0,0,-->,14.823151,-4.286436,11.546980
1,0,0.5,1,1,0,0.5,-->,13.674029,-2.408729,6.776868
1,0,0.5,1,1,0,1,-->,11.246618,2.513937,2.390459
1,0,0.5,1,1,0.5,0,-->,13.841754,-3.540103,6.994520
1,0,0.5,1,1,0.5,0.5,-->,13.477508,-2.636724,5.900362
1,0,0.5,1,1,0.5,1,-->,11.115410,2.146163,1.995189
1,0,0.5,1,1,1,0,-->,12.084330,-3.950671,3.850842
1,0,0.5,1,1,1,0.5,-->,11.757010,-3.188629,3.069650
1,0,0.5,1,1,1,1,-->,10.601943,-0.700386,0.279217
1,0,1,0,0,0,0,-->,52.194069,-69.832680,27.645910
1,0,1,0,0,0,0.5,-->,33.601055,-34.741142,7.001755
1,0,1,0,0,0,1,-->,19.070997,-1.085602,-11.533072
1,0,1,0,0,0.5,0,-->,48.161556,-74.727287,25.437666
1,0,1,0,0,0.5,0.5,-->,31.245323,-41.932247,8.195469
1,0,1,0,0,0.5,1,-->,18.731529,-8.216284,-7.397086
1,0,1,0,0,1,0,-->,45.010715,-78.350197,23.050589
1,0,1,0,0,1,0.5,-->,29.863373,-42.913445,7.640698
1,0,1,0,0,1,1,-->,18.882523,-13.163421,-5.042800
1,0,1,0,0.5,0,0,-->,38.920479,-30.712643,28.116796
1,0,1,0,0.5,0,0.5,-->,25.651768,-13.023596,12.402040
1,0,1,0,0.5,0,1,-->,16.290747,4.535429,-0.316196
1,0,1,0,0.5,0.5,0,-->,34.925068,-39.499878,24.314386
1,0,1,0,0.5,0.5,0.5,-->,24.440701,-21.995378,11.248894
1,0,1,0,0.5,0.5,1,-->,13.483230,-0.250977,-7.516119
1,0,1,0,0.5,1,0,-->,31.925297,-44.929913,20.682055
1,0,1,0,0.5,1,0.5,-->,26.971426,-40.245846,10.631123
1,0,1,0,0.5,1,1,-->,13.100979,-6.714597,-5.010396
1,0,1,0,1,0,0,-->,30.718487,-3.077820,29.922186
1,0,1,0,1,0,0.5,-->,21.530975,3.367797,15.174676
1,0,1,0,1,0,1,-->,15.395723,8.147864,6.610893
1,0,1,0,1,0.5,0,-->,26.624260,-11.381772,22.718836
1,0,1,0,1,0.5,0.5,-->,19.930073,-2.050674,14.287971
1,0,1,0,1,0.5,1,-->,11.301305,4.907201,1.420888
1,0,1,0,1,1,0,-->,23.661291,-18.622564,19.015570
1,0,1,0,1,1,0.5,-->,16.255402,-10.306309,8.807509
1,0,1,0,1,1,1,-->,6.054020,1.116737,-5.326850
1,0,1,0.5,0,0,0,-->,35.059418,-45.967411,16.949150
1,0,1,0.5,0,0,0.5,-->,23.225960,-21.074041,4.454037
1,0,1,0.5,0,0,1,-->,14.839707,1.542314,-5.423609
1,0,1,0.5,0,0.5,0,-->,32.542725,-47.980171,16.038126
1,0,1,0.5,0,0.5,0.5,-->,21.801647,-27.518169,5.009142
1,0,1,0.5,0,0.5,1,-->,14.693403,-3.100504,-3.392929
1,0,1,0.5,0,1,0,-->,30.353371,-49.924023,15.358069
1,0,1,0.5,0,1,0.5,-->,22.282566,-26.683491,6.102267
1,0,1,0.5,0,1,1,-->,15.635404,-8.208753,-2.781443
1,0,1,0.5,0.5,0,0,-->,27.487379,-20.006344,18.634268
1,0,1,0.5,0.5,0,0.5,-->,20.457972,-12.592357,9.565599
1,0,1,0.5,0.5,0,1,-->,14.312098,2.182611,0.128851
1,0,1,0.5,0.5,0.5,0,-->,25.760960,-30.572855,17.253712
1,0,1,0.5,0.5,0.5,0.5,-->,21.195202,-19.919968,8.259138
1,0,1,0.5,0.5,0.5,1,-->,12.305098,0.583352,-3.896471
1,0,1,0.5,0.5,1,0,-->,25.233910,-33.501030,15.099014
1,0,1,0.5,0.5,1,0.5,-->,20.845610,-26.590403,7.574217
1,0,1,0.5,0.5,1,1,-->,12.152591,-4.328842,-2.799477
1,0,1,0.5,1,0,0,-->,23.052723,-3.499149,20.578274
1,0,1,0.5,1,0,0.5,-->,16.510838,2.422225,9.272483
1,0,1,0.5,1,0,1,-->,13.541198,4.762186,4.336836
1,0,1,0.5,1,0.5,0,-->,19.849405,-9.826174,14.639573
1,0,1,0.5,1,0.5,0.5,-->,16.838406,-2.284050,10.442896
1,0,1,0.5,1,0.5,1,-->,11.071446,2.742807,1.128365
1,0,1,0.5,1,1,0,-->,18.614235,-11.974336,12.047261
1,0,1,0.5,1,1,0.5,-->,14.109521,-6.768387,5.719765
1,0,1,0.5,1,1,1,-->,7.982181,0.330894,-2.906282
1,0,1,1,0,0,0,-->,14.197990,-9.260703,4.128410
1,0,1,1,0,0,0.5,-->,9.954346,-0.389016,1.566466
1,0,1,1,0,0,1,-->,11.544132,3.976646,1.809334
1,0,1,1,0,0.5,0,-->,14.693295,-10.095276,4.476684
1,0,1,1,0,0.5,0.5,-->,12.636183,-5.446985,2.560447
1,0,1,1,0,0.5,1,-->,11.267391,1.737442,1.223375
1,0,1,1,0,1,0,-->,14.313509,-12.291831,5.354087
1,0,1,1,0,1,0.5,-->,12.871112,-7.495820,3.287318
1,0,1,1,0,1,1,-->,10.925508,-1.023346,0.498054
1,0,1,1,0.5,0,0,-->,12.986109,-3.901775,7.615939
1,0,1,1,0.5,0,0.5,-->,12.445469,-4.348829,3.206230
1,0,1,1,0.5,0,1,-->,11.226649,2.087372,1.452882
1,0,1,1,0.5,0.5,0,-->,12.918004,-5.967337,3.578823
1,0,1,1,0.5,0.5,0.5,-->,12.481507,-5.069878,2.510746
1,0,1,1,0.5,0.5,1,-->,11.101591,1.692650,1.102632
1,0,1,1,0.5,1,0,-->,12.930657,-7.732289,3.789529
1,0,1,1,0.5,1,0.5,-->,12.555051,-6.749661,2.996116
1,0,1,1,0.5,1,1,-->,10.776641,-0.873634,0.405385
1,0,1,1,1,0,0,-->,16.363941,-3.828796,11.750968
1,0,1,1,1,0,0.5,-->,14.018000,-2.262725,7.189571
1,0,1,1,1,0,1,-->,10.852549,-0.151756,1.035026
1,0,1,1,1,0.5,0,-->,14.091319,-3.159120,7.353145
1,0,1,1,1,0.5,0.5,-->,13.620877,-2.389365,6.320755
1,0,1,1,1,0.5,1,-->,10.739305,-0.395901,0.703274
1,0,1,1,1,1,0,-->,11.293338,-2.334633,1.941627
1,0,1,1,1,1,0.5,-->,10.998345,-1.639072,1.239471
1,0,1,1,1,1,1,-->,10.600235,-0.696495,0.291832
1,0.5,0,0,0,0,0,-->,42.741589,-10.796201,-47.694077
1,0.5,0,0,0,0,0.5,-->,28.437889,10.799195,-48.304428
1,0.5,0,0,0,0,1,-->,17.261457,31.408621,-50.659042
1,0.5,0,0,0,0.5,0,-->,38.175877,-25.467093,-35.066212
1,0.5,0,0,0,0.5,0.5,-->,25.720861,-2.024554,-36.804428
1,0.5,0,0,0,0.5,1,-->,16.331274,18.801460,-39.799271
1,0.5,0,0,0,1,0,-->,34.137798,-36.910915,-25.767481
1,0.5,0,0,0,1,0.5,-->,23.223530,-10.526682,-28.838499
1,0.5,0,0,0,1,1,-->,16.172375,10.096233,-31.992399
1,0.5,0,0,0.5,0,0,-->,31.045454,-1.853290,-19.252838
1,0.5,0,0,0.5,0,0.5,-->,21.055685,9.340575,-21.770437
1,0.5,0,0,0.5,0,1,-->,14.234485,18.218843,-24.162151
1,0.5,0,0,0.5,0.5,0,-->,26.903120,-13.010403,-13.925371
1,0.5,0,0,0.5,0.5,0.5,-->,20.446827,0.429278,-17.174980
1,0.5,0,0,0.5,0.5,1,-->,14.108295,15.987817,-19.468735
1,0.5,0,0,0.5,1,0,-->,23.195089,-21.501169,-11.150646
1,0.5,0,0,0.5,1,0.5,-->,19.861235,-7.607055,-10.501937
1,0.5,0,0,0.5,1,1,-->,13.683070,6.667646,-24.155205
1,0.5,0,0,1,0,0,-->,23.932617,8.454494,10.957252
1,0.5,0,0,1,0,0.5,-->,17.022778,10.465604,2.424566
1,0.5,0,0,1,0,1,-->,13.522385,11.796323,-1.790510
1,0.5,0,0,1,0.5,0,-->,19.606192,0.166986,6.465695
1,0.5,0,0,1,0.5,0.5,-->,13.788198,4.869234,-1.879782
1,0.5,0,0,1,0.5,1,-->,10.932886,8.920774,-5.579803
1,0.5,0,0,1,1,0,-->,16.780163,-6.715228,3.507022
1,0.5,0,0,1,1,0.5,-->,14.326837,-3.754875,-0.224880
1,0.5,0,0,1,1,1,-->,10.005345,5.399563,-5.459844
1,0.5,0,0.5,0,0,0,-->,28.980556,-7.597388,-31.055058
1,0.5,0,0.5,0,0,0.5,-->,20.415022,6.507843,-29.821575
1,0.5,0,0.5,0,0,1,-->,13.865320,18.596407,-29.550596
1,0.5,0,0.5,0,0.5,0,-->,26.092636,-16.267338,-22.418774
1,0.5,0,0.5,0,0.5,0.5,-->,18.517258,-2.328735,-23.535200
1,0.5,0,0.5,0,0.5,1,-->,13.875194,13.586254,-21.533726
1,0.5,0,0.5,0,1,0,-->,22.949919,-22.692831,-16.403090
1,0.5,0,0.5,0,1,0.5,-->,18.629663,-7.221368,-14.741879
1,0.5,0,0.5,0,1,1,-->,14.279310,6.556677,-14.827131
1,0.5,0,0.5,0.5,0,0,-->,23.103008,-2.387845,-9.041448
1,0.5,0,0.5,0.5,0,0.5,-->,17.573681,6.666856,-11.047026
1,0.5,0,0.5,0.5,0,1,-->,13.603741,15.090168,-11.947015
1,0.5,0,0.5,0.5,0.5,0,-->,21.179176,-7.828234,-6.278829
1,0.5,0,0.5,0.5,0.5,0.5,-->,15.515383,0.515716,-8.482612
1,0.5,0,0.5,0.5,0.5,1,-->,12.751595,12.225533,-17.170252
1,0.5,0,0.5,0.5,1,0,-->,20.411085,-14.594007,-1.935647
1,0.5,0,0.5,0.5,1,0.5,-->,19.111418,-13.072089,-7.774330
1,0.5,0,0.5,0.5,1,1,-->,12.414310,4.764177,-14.125172
1,0.5,0,0.5,1,0,0,-->,19.234879,3.443656,10.912930
1,0.5,0,0.5,1,0,0.5,-->,13.278008,7.460771,0.784665
1,0.5,0,0.5,1,0,1,-->,12.337995,6.267118,0.312640
1,0.5,0,0.5,1,0.5,0,-->,15.351556,-1.457412,4.112193
1,0.5,0,0.5,1,0.5,0.5,-->,14.632299,1.588246,2.488023
1,0.5,0,0.5,1,0.5,1,-->,10.927028,5.947616,-2.408090
1,0.5,0,0.5,1,1,0,-->,13.591240,-2.723131,2.092798
1,0.5,0,0.5,1,1,0.5,-->,12.985002,-3.065105,0.864005
1,0.5,0,0.5,1,1,1,-->,10.258023,2.965232,-3.172837
1,0.5,0,1,0,0,0,-->,13.195986,1.110171,-2.494490
1,0.5,0,1,0,0,0.5,-->,12.156481,4.942250,-2.081004
1,0.5,0,1,0,0,1,-->,11.336141,6.668391,-1.815467
1,0.5,0,1,0,0.5,0,-->,10.747175,-2.174973,-1.924072
1,0.5,0,1,0,0.5,0.5,-->,11.848646,-1.361444,-2.870077
1,0.5,0,1,0,0.5,1,-->,11.122997,3.883992,-2.189716
1,0.5,0,1,0,1,0,-->,9.959553,-3.169243,-1.372547
1,0.5,0,1,0,1,0.5,-->,11.821534,-3.890254,-0.937767
1,0.5,0,1,0,1,1,-->,10.993263,2.616258,-1.088360
1,0.5,0,1,0.5,0,0,-->,12.682253,-0.196199,5.699459
1,0.5,0,1,0.5,0,0.5,-->,12.146036,-1.228694,-1.146239
1,0.5,0,1,0.5,0,1,-->,11.181717,3.745451,-1.369013
1,0.5,0,1,0.5,0.5,0,-->,12.211803,-2.306241,-1.277271
1,0.5,0,1,0.5,0.5,0.5,-->,12.024849,-2.228239,-2.250992
1,0.5,0,1,0.5,0.5,1,-->,11.100391,3.187109,-1.745284
1,0.5,0,1,0.5,1,0,-->,12.170239,-4.603544,0.059117
1,0.5,0,1,0.5,1,0.5,-->,12.110877,-4.586346,-0.330104
1,0.5,0,1,0.5,1,1,-->,10.970530,2.103210,-0.619321
1,0.5,0,1,1,0,0,-->,14.789785,-2.750938,11.528574
1,0.5,0,1,1,0,0.5,-->,13.681497,-2.017677,6.617398
1,0.5,0,1,1,0,1,-->,11.225131,2.698729,2.168050
1,0.5,0,1,1,0.5,0,-->,13.787622,-2.525314,6.511414
1,0.5,0,1,1,0.5,0.5,-->,13.493340,-2.360517,5.714354
1,0.5,0,1,1,0.5,1,-->,11.130401,2.275143,1.847590
1,0.5,0,1,1,1,0,-->,11.995992,-3.024060,3.296574
1,0.5,0,1,1,1,0.5,-->,11.757174,-2.935054,2.866482
1,0.5,0,1,1,1,1,-->,10.622445,-0.568716,0.144096
1,0.5,0.5,0,0,0,0,-->,39.696362,-27.578676,-17.060135
1,0.5,0.5,0,0,0,0.5,-->,26.507992,-5.097867,-23.221125
1,0.5,0.5,0,0,0,1,-->,16.057007,16.997271,-30.023367
1,0.5,0.5,0,0,0.5,0,-->,35.827686,-38.165661,-10.436672
1,0.5,0.5,0,0,0.5,0.5,-->,25.046549,-13.598976,-17.931078
1,0.5,0.5,0,0,0.5,1,-->,15.611410,12.744296,-23.873800
1,0.5,0.5,0,0,1,0,-->,32.310310,-45.262531,-6.514675
1,0.5,0.5,0,0,1,0.5,-->,24.299091,-19.880579,-11.095929
1,0.5,0.5,0,0,1,1,-->,15.868253,4.291710,-18.088900
1,0.5,0.5,0,0.5,0,0,-->,30.017603,-9.022160,0.710250
1,0.5,0.5,0,0.5,0,0.5,-->,23.552746,4.132681,-3.128691
1,0.5,0.5,0,0.5,0,1,-->,15.125547,18.235777,-11.763880
1,0.5,0.5,0,0.5,0.5,0,-->,29.302942,-16.456894,4.329617
1,0.5,0.5,0,0.5,0.5,0.5,-->,20.627918,-4.041699,-1.351284
1,0.5,0.5,0,0.5,0.5,1,-->,14.096694,19.707634,-32.066662
1,0.5,0.5,0,0.5,1,0,-->,27.273746,-26.894903,6.044845
1,0.5,0.5,0,0.5,1,0.5,-->,27.191235,-27.576672,-12.502628
1,0.5,0.5,0,0.5,1,1,-->,13.586842,6.194344,-23.165207
1,0.5,0.5,0,1,0,0,-->,24.314045,7.903736,17.895285
1,0.5,0.5,0,1,0,0.5,-->,17.174681,13.510152,5.994353
1,0.5,0.5,0,1,0,1,-->,13.593457,11.540870,0.821554
1,0.5,0.5,0,1,0.5,0,-->,20.701576,0.423563,11.232995
1,0.5,0.5,0,1,0.5,0.5,-->,18.000378,4.113804,4.048387
1,0.5,0.5,0,1,0.5,1,-->,10.841320,8.843821,-5.382662
1,0.5,0.5,0,1,1,0,-->,18.027756,-6.782530,7.385686
1,0.5,0.5,0,1,1,0.5,-->,14.441792,-3.821022,0.280387
1,0.5,0.5,0,1,1,1,-->,9.907897,5.342536,-5.453642
1,0.5,0.5,0.5,0,0,0,-->,27.437344,-17.927187,-10.366368
1,0.5,0.5,0.5,0,0,0.5,-->,20.130972,-1.406844,-12.157228
1,0.5,0.5,0.5,0,0,1,-->,14.122491,14.683210,-14.466363
1,0.5,0.5,0.5,0,0.5,0,-->,25.027393,-20.579277,-5.425570
1,0.5,0.5,0.5,0,0.5,0.5,-->,17.829422,-7.064756,-9.216223
1,0.5,0.5,0.5,0,0.5,1,-->,13.567829,10.550430,-10.747807
1,0.5,0.5,0.5,0,1,0,-->,23.883888,-24.847816,-0.462412
1,0.5,0.5,0.5,0,1,0.5,-->,18.549988,-9.842787,-3.316614
1,0.5,0.5,0.5,0,1,1,-->,13.120108,3.954136,-12.648655
1,0.5,0.5,0.5,0.5,0,0,-->,24.675367,-4.462260,5.730389
1,0.5,0.5,0.5,0.5,0,0.5,-->,17.603590,3.317442,0.269368
1,0.5,0.5,0.5,0.5,0,1,-->,13.449071,13.123530,-4.516483
1,0.5,0.5,0.5,0.5,0.5,0,-->,21.230612,-9.907900,5.152410
1,0.5,0.5,0.5,0.5,0.5,0.5,-->,20.261866,-6.628479,-8.400688
1,0.5,0.5,0.5,0.5,0.5,1,-->,12.681359,12.878884,-19.407679
1,0.5,0.5,0.5,0.5,1,0,-->,20.736309,-15.494664,6.465695
1,0.5,0.5,0.5,0.5,1,0.5,-->,20.816889,-18.012014,-7.206367
1,0.5,0.5,0.5,0.5,1,1,-->,12.291439,4.528878,-13.852316
1,0.5,0.5,0.5,1,0,0,-->,18.533272,5.784665,10.527571
1,0.5,0.5,0.5,1,0,0.5,-->,12.798662,7.655989,1.293777
1,0.5,0.5,0.5,1,0,1,-->,11.689941,6.759176,-0.655427
1,0.5,0.5,0.5,1,0.5,0,-->,15.111343,-0.755741,4.749418
1,0.5,0.5,0.5,1,0.5,0.5,-->,15.529704,1.471699,3.899860
1,0.5,0.5,0.5,1,0.5,1,-->,10.815422,5.932204,-2.478128
1,0.5,0.5,0.5,1,1,0,-->,15.158343,-4.049922,3.874933
1,0.5,0.5,0.5,1,1,0.5,-->,13.115731,-3.199801,1.077356
1,0.5,0.5,0.5,1,1,1,-->,10.199665,2.931459,-3.167472
1,0.5,0.5,1,0,0,0,-->,13.303751,-1.966843,1.806142
1,0.5,0.5,1,0,0,0.5,-->,12.158722,-1.681965,-1.938154
1,0.5,0.5,1,0,0,1,-->,11.137606,3.677177,-1.665724
1,0.5,0.5,1,0,0.5,0,-->,12.371345,-2.947730,-1.832064
1,0.5,0.5,1,0,0.5,0.5,-->,12.071005,-2.423001,-2.411898
1,0.5,0.5,1,0,0.5,1,-->,11.107423,3.136025,-1.768881
1,0.5,0.5,1,0,1,0,-->,12.372378,-5.162791,-0.059923
1,0.5,0.5,1,0,1,0.5,-->,12.173879,-4.735390,-0.331958
1,0.5,0.5,1,0,1,1,-->,10.983839,2.056412,-0.604669
1,0.5,0.5,1,0.5,0,0,-->,12.561843,-2.314296,-0.851337
1,0.5,0.5,1,0.5,0,0.5,-->,12.105234,-2.301529,-2.164174
1,0.5,0.5,1,0.5,0,1,-->,11.103005,3.148640,-1.712728
1,0.5,0.5,1,0.5,0.5,0,-->,12.254115,-2.469434,-2.158155
1,0.5,0.5,1,0.5,0.5,0.5,-->,12.059504,-2.441346,-2.473713
1,0.5,0.5,1,0.5,0.5,1,-->,11.094974,3.072523,-1.757991
1,0.5,0.5,1,0.5,1,0,-->,12.331381,-4.698098,-0.189465
1,0.5,0.5,1,0.5,1,0.5,-->,12.175213,-4.680110,-0.323142
1,0.5,0.5,1,0.5,1,1,-->,10.968124,2.053661,-0.576984
1,0.5,0.5,1,1,0,0,-->,13.986297,-2.376628,6.771715
1,0.5,0.5,1,1,0,0.5,-->,13.525727,-2.343273,5.729705
1,0.5,0.5,1,1,0,1,-->,11.132938,2.259625,1.841738
1,0.5,0.5,1,1,0.5,0,-->,13.663379,-2.361353,5.756060
1,0.5,0.5,1,1,0.5,0.5,-->,13.467671,-2.360236,5.523726
1,0.5,0.5,1,1,0.5,1,-->,11.120418,2.226263,1.816705
1,0.5,0.5,1,1,1,0,-->,11.910007,-2.896030,2.934043
1,0.5,0.5,1,1,1,0.5,-->,11.742332,-2.911700,2.812753
1,0.5,0.5,1,1,1,1,-->,10.622360,-0.568503,0.147774
1,0.5,1,0,0,0,0,-->,37.905296,-37.711891,13.021514
1,0.5,1,0,0,0,0.5,-->,24.898893,-14.797706,-0.359484
1,0.5,1,0,0,0,1,-->,16.119675,6.900468,-11.457259
1,0.5,1,0,0,0.5,0,-->,34.223602,-44.876671,11.605163
1,0.5,1,0,0,0.5,0.5,-->,23.367325,-24.009354,0.412057
1,0.5,1,0,0,0.5,1,-->,15.360756,0.538895,-9.493752
1,0.5,1,0,0,1,0,-->,31.755144,-49.803967,9.837999
1,0.5,1,0,0,1,0.5,-->,23.596918,-26.190756,1.109594
1,0.5,1,0,0,1,1,-->,13.750401,-4.005494,-7.509385
1,0.5,1,0,0.5,0,0,-->,29.611570,-10.517638,17.772490
1,0.5,1,0,0.5,0,0.5,-->,22.422222,-3.850067,9.003700
1,0.5,1,0,0.5,0,1,-->,15.182913,8.217234,-2.295153
1,0.5,1,0,0.5,0.5,0,-->,28.241646,-23.887890,17.027517
1,0.5,1,0,0.5,0.5,0.5,-->,28.714094,-28.280621,9.437546
1,0.5,1,0,0.5,0.5,1,-->,13.446985,3.109031,-9.887214
1,0.5,1,0,0.5,1,0,-->,27.121792,-31.819592,13.948299
1,0.5,1,0,0.5,1,0.5,-->,26.187885,-34.968208,7.285919
1,0.5,1,0,0.5,1,1,-->,13.075527,-3.307639,-7.407566
1,0.5,1,0,1,0,0,-->,25.261984,6.727045,21.907001
1,0.5,1,0,1,0,0.5,-->,18.296600,12.654043,10.225031
1,0.5,1,0,1,0,1,-->,11.883077,8.110216,-0.622688
1,0.5,1,0,1,0.5,0,-->,22.026680,-1.061078,15.754175
1,0.5,1,0,1,0.5,0.5,-->,19.381496,2.262680,10.935638
1,0.5,1,0,1,0.5,1,-->,11.332214,7.509636,-1.455147
1,0.5,1,0,1,1,0,-->,19.354328,-6.693174,8.456849
1,0.5,1,0,1,1,0.5,-->,16.000111,-6.110703,5.241036
1,0.5,1,0,1,1,1,-->,6.517323,4.249715,-7.650099
1,0.5,1,0.5,0,0,0,-->,26.321020,-23.577461,8.172077
1,0.5,1,0.5,0,0,0.5,-->,18.932293,-11.221786,1.654348
1,0.5,1,0.5,0,0,1,-->,13.876393,2.763432,-4.047262
1,0.5,1,0.5,0,0.5,0,-->,23.672230,-28.866520,8.321926
1,0.5,1,0.5,0,0.5,0.5,-->,16.603773,-16.521019,0.763736
1,0.5,1,0.5,0,0.5,1,-->,12.973473,1.673271,-5.431786
1,0.5,1,0.5,0,1,0,-->,23.307238,-29.911715,8.053052
1,0.5,1,0.5,0,1,0.5,-->,20.090158,-21.982817,3.916457
1,0.5,1,0.5,0,1,1,-->,12.545842,-2.680057,-4.335666
1,0.5,1,0.5,0.5,0,0,-->,23.836712,-12.036082,14.977117
1,0.5,1,0.5,0.5,0,0.5,-->,16.653410,-5.313323,5.497218
1,0.5,1,0.5,0.5,0,1,-->,12.888129,3.948087,-3.406160
1,0.5,1,0.5,0.5,0.5,0,-->,20.292017,-18.143045,10.720296
1,0.5,1,0.5,0.5,0.5,0.5,-->,21.537071,-19.084400,6.291117
1,0.5,1,0.5,0.5,0.5,1,-->,12.246384,2.546023,-5.559520
1,0.5,1,0.5,0.5,1,0,-->,21.950830,-23.155525,8.173810
1,0.5,1,0.5,0.5,1,0.5,-->,20.432095,-23.431139,5.351352
1,0.5,1,0.5,0.5,1,1,-->,12.140551,-2.255354,-4.277575
1,0.5,1,0.5,1,0,0,-->,19.433807,5.023794,13.842787
1,0.5,1,0.5,1,0,0.5,-->,16.707773,3.427545,8.860844
1,0.5,1,0.5,1,0,1,-->,11.422228,4.683849,-0.145281
1,0.5,1,0.5,1,0.5,0,-->,18.656988,-0.438793,11.012075
1,0.5,1,0.5,1,0.5,0.5,-->,16.767427,0.391843,8.593900
1,0.5,1,0.5,1,0.5,1,-->,11.093396,4.326334,-0.642850
1,0.5,1,0.5,1,1,0,-->,16.009806,-4.517889,5.457427
1,0.5,1,0.5,1,1,0.5,-->,13.957785,-4.181182,3.512980
1,0.5,1,0.5,1,1,1,-->,8.258919,2.145585,-4.347734
1,0.5,1,1,0,0,0,-->,13.964007,-3.875404,4.889433
1,0.5,1,1,0,0,0.5,-->,12.636248,-4.297030,2.513406
1,0.5,1,1,0,0,1,-->,11.164626,2.229439,0.984535
1,0.5,1,1,0,0.5,0,-->,12.925159,-5.302912,2.679031
1,0.5,1,1,0,0.5,0.5,-->,12.522313,-4.887419,2.212188
1,0.5,1,1,0,0.5,1,-->,11.114344,1.796536,0.927173
1,0.5,1,1,0,1,0,-->,12.854320,-6.974814,3.049557
1,0.5,1,1,0,1,0.5,-->,12.552494,-6.505456,2.755969
1,0.5,1,1,0,1,1,-->,10.797583,-0.759746,0.264595
1,0.5,1,1,0.5,0,0,-->,12.992090,-4.700667,3.234136
1,0.5,1,1,0.5,0,0.5,-->,12.516435,-4.765666,2.300435
1,0.5,1,1,0.5,0,1,-->,11.105481,1.821128,0.935867
1,0.5,1,1,0.5,0.5,0,-->,12.676646,-4.851785,2.355136
1,0.5,1,1,0.5,0.5,0.5,-->,12.467610,-4.845637,2.147531
1,0.5,1,1,0.5,0.5,1,-->,11.095694,1.780896,0.922811
1,0.5,1,1,0.5,1,0,-->,12.686719,-6.405180,2.837710
1,0.5,1,1,0.5,1,0.5,-->,12.512721,-6.385261,2.721862
1,0.5,1,1,0.5,1,1,-->,10.783868,-0.731324,0.264945
1,0.5,1,1,1,0,0,-->,14.057480,-2.123106,6.908417
1,0.5,1,1,1,0,0.5,-->,13.602098,-2.132909,6.071413
1,0.5,1,1,1,0,1,-->,10.753945,-0.283412,0.541843
1,0.5,1,1,1,0.5,0,-->,13.738539,-2.114427,6.118987
1,0.5,1,1,1,0.5,0.5,-->,13.545218,-2.132909,5.945305
1,0.5,1,1,1,0.5,1,-->,10.746614,-0.290388,0.535961
1,0.5,1,1,1,1,0,-->,11.158010,-1.363109,1.109320
1,0.5,1,1,1,1,0.5,-->,10.995515,-1.385846,1.006984
1,0.5,1,1,1,1,1,-->,10.619308,-0.564825,0.160161
1,1,0,0,0,0,0,-->,26.471706,20.844351,-46.171207
1,1,0,0,0,0,0.5,-->,19.881811,24.346609,-42.197556
1,1,0,0,0,0,1,-->,15.125169,28.677038,-41.171207
1,1,0,0,0,0.5,0,-->,23.639071,5.967238,-36.810009
1,1,0,0,0,0.5,0.5,-->,17.456045,12.852043,-34.472881
1,1,0,0,0,0.5,1,-->,14.275692,19.163473,-32.901638
1,1,0,0,0,1,0,-->,21.005913,-4.369652,-31.478598
1,1,0,0,0,1,0.5,-->,16.774185,6.597639,-28.646679
1,1,0,0,0,1,1,-->,13.907677,13.389106,-28.155645
1,1,0,0,0.5,0,0,-->,23.252211,14.301528,-15.273896
1,1,0,0,0.5,0,0.5,-->,17.094231,16.032152,-17.083191
1,1,0,0,0.5,0,1,-->,13.727156,17.066093,-17.650030
1,1,0,0,0.5,0.5,0,-->,19.316820,4.080700,-14.034204
1,1,0,0,0.5,0.5,0.5,-->,15.435195,9.001770,-15.625658
1,1,0,0,0.5,0.5,1,-->,11.633507,17.971279,-25.557892
1,1,0,0,0.5,1,0,-->,16.518656,-3.578732,-13.256371
1,1,0,0,0.5,1,0.5,-->,14.665013,0.935396,-20.440273
1,1,0,0,0.5,1,1,-->,10.813605,10.430448,-19.860964
1,1,0,0,1,0,0,-->,21.422382,14.105063,8.221793
1,1,0,0,1,0,0.5,-->,16.712664,13.012804,1.884934
1,1,0,0,1,0,1,-->,13.469927,13.038917,-1.824905
1,1,0,0,1,0.5,0,-->,17.833591,5.255080,3.744965
1,1,0,0,1,0.5,0.5,-->,15.016768,10.119123,0.048189
1,1,0,0,1,0.5,1,-->,10.639894,10.304401,-5.511209
1,1,0,0,1,1,0,-->,14.739100,-1.381325,0.412453
1,1,0,0,1,1,0.5,-->,11.511215,2.158808,-4.039084
1,1,0,0,1,1,1,-->,7.029838,7.470817,-10.260703
1,1,0,0.5,0,0,0,-->,19.789799,12.180026,-28.373831
1,1,0,0.5,0,0,0.5,-->,15.916506,14.273121,-24.526649
1,1,0,0.5,0,0,1,-->,12.850719,16.863016,-22.836592
1,1,0,0.5,0,0.5,0,-->,17.456785,3.130492,-22.452272
1,1,0,0.5,0,0.5,0.5,-->,13.734487,7.254259,-20.964197
1,1,0,0.5,0,0.5,1,-->,12.717546,12.865403,-17.654255
1,1,0,0.5,0,1,0,-->,15.508410,-2.543622,-18.719635
1,1,0,0.5,0,1,0.5,-->,13.393046,3.921701,-16.210903
1,1,0,0.5,0,1,1,-->,12.586641,8.161285,-17.073601
1,1,0,0.5,0.5,0,0,-->,18.795126,7.804986,-6.434803
1,1,0,0.5,0.5,0,0.5,-->,14.140172,12.080988,-10.217591
1,1,0,0.5,0.5,0,1,-->,12.920390,13.715736,-10.407900
1,1,0,0.5,0.5,0.5,0,-->,15.724219,3.826113,-8.106873
1,1,0,0.5,0.5,0.5,0.5,-->,14.301799,7.396949,-12.766570
1,1,0,0.5,0.5,0.5,1,-->,11.272520,11.709718,-14.893096
1,1,0,0.5,0.5,1,0,-->,14.576724,-1.135683,-7.226969
1,1,0,0.5,0.5,1,0.5,-->,12.892993,0.534791,-12.185619
1,1,0,0.5,0.5,1,1,-->,10.750569,6.222919,-11.974411
1,1,0,0.5,1,0,0,-->,18.383184,6.613689,9.663026
1,1,0,0.5,1,0,0.5,-->,14.386228,5.970946,2.816705
1,1,0,0.5,1,0,1,-->,12.391505,7.874629,-0.812442
1,1,0,0.5,1,0.5,0,-->,15.387525,0.095808,4.433868
1,1,0,0.5,1,0.5,0.5,-->,14.133681,5.345743,2.321288
1,1,0,0.5,1,0.5,1,-->,10.682611,6.108104,-3.111881
1,1,0,0.5,1,1,0,-->,13.277587,-1.025603,0.615711
1,1,0,0.5,1,1,0.5,-->,11.277866,1.084317,-2.176037
1,1,0,0.5,1,1,1,-->,8.561048,4.003260,-5.970376
1,1,0,1,0,0,0,-->,12.615707,5.081718,0.996117
1,1,0,1,0,0,0.5,-->,12.377872,5.568578,-0.137819
1,1,0,1,0,0,1,-->,11.231020,6.887153,-1.003891
1,1,0,1,0,0.5,0,-->,10.294676,0.897155,0.237267
1,1,0,1,0,0.5,0.5,-->,11.536485,2.834990,0.020222
1,1,0,1,0,0.5,1,-->,10.980324,4.058084,-1.003883
1,1,0,1,0,1,0,-->,10.960465,-0.424126,-1.482491
1,1,0,1,0,1,0.5,-->,10.837778,-0.000160,-1.277134
1,1,0,1,0,1,1,-->,10.671673,0.575874,-1.000000
1,1,0,1,0.5,0,0,-->,13.449177,0.814456,8.288305
1,1,0,1,0.5,0,0.5,-->,12.000419,2.699231,1.751744
1,1,0,1,0.5,0,1,-->,11.047215,3.907095,-0.244274
1,1,0,1,0.5,0.5,0,-->,11.926004,2.068373,1.575175
1,1,0,1,0.5,0.5,0.5,-->,11.692579,2.347704,0.742883
1,1,0,1,0.5,0.5,1,-->,10.950409,3.364925,-0.509735
1,1,0,1,0.5,1,0,-->,11.051104,-0.463659,-0.387815
1,1,0,1,0.5,1,0.5,-->,10.837781,-0.400567,-0.727973
1,1,0,1,0.5,1,1,-->,10.657748,0.119625,-0.536584
1,1,0,1,1,0,0,-->,16.134426,0.416344,11.023353
1,1,0,1,1,0,0.5,-->,13.876465,0.403105,6.611547
1,1,0,1,1,0,1,-->,10.828230,0.385216,0.657585
1,1,0,1,1,0.5,0,-->,13.904199,0.001679,6.489087
1,1,0,1,1,0.5,0.5,-->,13.509905,0.033932,5.762672
1,1,0,1,1,0.5,1,-->,10.743756,0.022487,0.367691
1,1,0,1,1,1,0,-->,11.158061,-0.509727,0.906609
1,1,0,1,1,1,0.5,-->,10.938111,-0.472717,0.526295
1,1,0,1,1,1,1,-->,10.641273,-0.424126,0.011681
1,1,0.5,0,0,0,0,-->,25.977140,6.032913,-22.765757
1,1,0.5,0,0,0,0.5,-->,18.669254,12.865191,-23.628925
1,1,0.5,0,0,0,1,-->,14.452547,18.429247,-24.242661
1,1,0.5,0,0,0.5,0,-->,22.482653,-4.903401,-18.475422
1,1,0.5,0,0,0.5,0.5,-->,16.685246,5.045924,-21.037905
1,1,0.5,0,0,0.5,1,-->,13.744577,13.718959,-20.941399
1,1,0.5,0,0,1,0,-->,20.105339,-12.852658,-15.699952
1,1,0.5,0,0,1,0.5,-->,15.986543,-0.543546,-17.119572
1,1,0.5,0,0,1,1,-->,11.267354,9.812479,-19.706488
1,1,0.5,0,0.5,0,0,-->,22.840834,9.976266,-2.156073
1,1,0.5,0,0.5,0,0.5,-->,17.056770,16.644604,-7.822998
1,1,0.5,0,0.5,0,1,-->,13.878150,17.501854,-11.092965
1,1,0.5,0,0.5,0.5,0,-->,19.959440,4.655852,-4.167867
1,1,0.5,0,0.5,0.5,0.5,-->,17.210152,12.352597,-23.309097
1,1,0.5,0,0.5,0.5,1,-->,11.555819,17.534683,-24.147324
1,1,0.5,0,0.5,1,0,-->,17.895206,-4.610057,-4.791209
1,1,0.5,0,0.5,1,0.5,-->,14.733662,0.402528,-18.649330
1,1,0.5,0,0.5,1,1,-->,10.600423,10.139657,-19.141161
1,1,0.5,0,1,0,0,-->,21.704220,14.011847,13.754677
1,1,0.5,0,1,0,0.5,-->,16.679972,14.581360,5.152136
1,1,0.5,0,1,0,1,-->,10.967987,10.710447,-4.879409
1,1,0.5,0,1,0.5,0,-->,18.512423,6.472231,7.619374
1,1,0.5,0,1,0.5,0.5,-->,15.062306,10.349588,0.696237
1,1,0.5,0,1,0.5,1,-->,10.391315,10.065941,-5.747899
1,1,0.5,0,1,1,0,-->,14.749174,2.097039,-1.098498
1,1,0.5,0,1,1,0.5,-->,11.506503,2.630120,-4.195317
1,1,0.5,0,1,1,1,-->,7.022614,7.459630,-10.198896
1,1,0.5,0.5,0,0,0,-->,19.456051,3.201974,-12.107428
1,1,0.5,0.5,0,0,0.5,-->,14.799706,9.463157,-13.224514
1,1,0.5,0.5,0,0,1,-->,12.998341,13.797007,-12.633144
1,1,0.5,0.5,0,0.5,0,-->,16.933289,-1.018163,-10.322298
1,1,0.5,0.5,0,0.5,0.5,-->,13.058160,3.601029,-11.521445
1,1,0.5,0.5,0,0.5,1,-->,11.934939,10.469464,-13.846814
1,1,0.5,0.5,0,1,0,-->,15.551494,-4.769086,-8.402375
1,1,0.5,0.5,0,1,0.5,-->,13.422799,-0.278837,-11.432401
1,1,0.5,0.5,0,1,1,-->,11.022534,5.841708,-11.877722
1,1,0.5,0.5,0.5,0,0,-->,18.408033,9.010586,0.209650
1,1,0.5,0.5,0.5,0,0.5,-->,13.608978,10.411404,-4.175041
1,1,0.5,0.5,0.5,0,1,-->,11.936260,11.750725,-10.991024
1,1,0.5,0.5,0.5,0.5,0,-->,15.441045,3.000859,-1.858078
1,1,0.5,0.5,0.5,0.5,0.5,-->,14.588195,7.972846,-13.664675
1,1,0.5,0.5,0.5,0.5,1,-->,11.127248,11.382403,-14.538164
1,1,0.5,0.5,0.5,1,0,-->,14.878711,-1.190696,-7.154757
1,1,0.5,0.5,0.5,1,0.5,-->,12.905757,0.296255,-11.699345
1,1,0.5,0.5,0.5,1,1,-->,10.623646,6.034631,-11.530998
1,1,0.5,0.5,1,0,0,-->,17.899189,7.674243,9.312716
1,1,0.5,0.5,1,0,0.5,-->,14.868806,7.205637,4.119990
1,1,0.5,0.5,1,0,1,-->,10.876868,6.340834,-2.741279
1,1,0.5,0.5,1,0.5,0,-->,16.288141,4.736119,5.454357
1,1,0.5,0.5,1,0.5,0.5,-->,14.204489,5.865266,2.503055
1,1,0.5,0.5,1,0.5,1,-->,10.531584,5.951613,-3.263896
1,1,0.5,0.5,1,1,0,-->,13.256409,1.066580,-0.410568
1,1,0.5,0.5,1,1,0.5,-->,11.270640,1.368709,-2.285175
1,1,0.5,0.5,1,1,1,-->,8.556188,3.998427,-5.933344
1,1,0.5,1,0,0,0,-->,13.452201,1.873064,3.723094
1,1,0.5,1,0,0,0.5,-->,11.956870,2.775819,0.948345
1,1,0.5,1,0,0,1,-->,11.010137,3.828758,-0.482232
1,1,0.5,1,0,0.5,0,-->,12.010488,1.854764,1.037109
1,1,0.5,1,0,0.5,0.5,-->,11.711205,2.304022,0.599266
1,1,0.5,1,0,0.5,1,-->,10.955173,3.314539,-0.521416
1,1,0.5,1,0,1,0,-->,11.118810,-0.836784,-0.511688
1,1,0.5,1,0,1,0.5,-->,10.856119,-0.484345,-0.733718
1,1,0.5,1,0,1,1,-->,10.667489,0.079530,-0.525542
1,1,0.5,1,0.5,0,0,-->,12.284666,2.278685,1.929453
1,1,0.5,1,0.5,0,0.5,-->,11.766295,2.363040,0.811021
1,1,0.5,1,0.5,0,1,-->,10.952316,3.317716,-0.479527
1,1,0.5,1,0.5,0.5,0,-->,11.879149,2.308171,0.823195
1,1,0.5,1,0.5,0.5,0.5,-->,11.678101,2.330681,0.586027
1,1,0.5,1,0.5,0.5,1,-->,10.939734,3.250642,-0.492385
1,1,0.5,1,0.5,1,0,-->,11.001648,-0.418198,-0.607853
1,1,0.5,1,0.5,1,0.5,-->,10.833209,-0.427439,-0.713450
1,1,0.5,1,0.5,1,1,-->,10.657302,0.080746,-0.496018
1,1,0.5,1,1,0,0,-->,14.007339,0.080594,6.669106
1,1,0.5,1,1,0,0.5,-->,13.508672,0.029646,5.748430
1,1,0.5,1,1,0,1,-->,10.744209,0.005646,0.358328
1,1,0.5,1,1,0.5,0,-->,13.637638,0.047505,5.777369
1,1,0.5,1,1,0.5,0.5,-->,13.435225,0.007318,5.585115
1,1,0.5,1,1,0.5,1,-->,10.735755,-0.014264,0.342628
1,1,0.5,1,1,1,0,-->,11.089630,-0.425539,0.585450
1,1,0.5,1,1,1,0.5,-->,10.928603,-0.461546,0.484406
1,1,0.5,1,1,1,1,-->,10.641273,-0.424126,0.015572
1,1,1,0,0,0,0,-->,24.930462,-2.533073,-0.054482
1,1,1,0,0,0,0.5,-->,18.665140,6.053402,-6.282925
1,1,1,0,0,0,1,-->,14.459425,12.727622,-11.583655
1,1,1,0,0,0.5,0,-->,22.393122,-11.395133,-1.440868
1,1,1,0,0,0.5,0.5,-->,17.025829,-1.197050,-6.262892
1,1,1,0,0,0.5,1,-->,11.688134,9.605573,-10.934909
1,1,1,0,0,1,0,-->,20.183613,-17.859922,-3.844360
1,1,1,0,0,1,0.5,-->,15.115902,-7.804211,-6.524470
1,1,1,0,0,1,1,-->,8.251889,5.871589,-10.178985
1,1,1,0,0.5,0,0,-->,23.133665,8.098893,10.798268
1,1,1,0,0.5,0,0.5,-->,17.507967,10.335134,2.370001
1,1,1,0,0.5,0,1,-->,11.561563,10.592061,-10.096856
1,1,1,0,0.5,0.5,0,-->,20.182610,-0.613416,5.635394
1,1,1,0,0.5,0.5,0.5,-->,16.779516,2.232555,-3.269010
1,1,1,0,0.5,0.5,1,-->,10.943756,9.879083,-10.701677
1,1,1,0,0.5,1,0,-->,17.699442,-6.916374,-3.370571
1,1,1,0,0.5,1,0.5,-->,14.329759,-5.872775,-6.369705
1,1,1,0,0.5,1,1,-->,7.686800,6.587121,-10.153708
1,1,1,0,1,0,0,-->,22.162607,14.128409,16.887152
1,1,1,0,1,0,0.5,-->,16.191801,11.548819,6.153033
1,1,1,0,1,0,1,-->,8.099893,8.221793,-8.396889
1,1,1,0,1,0.5,0,-->,18.844805,10.497902,8.059679
1,1,1,0,1,0.5,0.5,-->,15.368064,10.619905,4.376765
1,1,1,0,1,0.5,1,-->,7.613644,7.873003,-9.174296
1,1,1,0,1,1,0,-->,14.760378,6.031135,-2.809341
1,1,1,0,1,1,0.5,-->,11.516970,6.402086,-5.832756
1,1,1,0,1,1,1,-->,7.013117,7.447471,-10.132293
1,1,1,0.5,0,0,0,-->,19.188133,-2.295738,2.067674
1,1,1,0.5,0,0,0.5,-->,14.525252,2.323127,-3.230670
1,1,1,0.5,0,0,1,-->,12.949249,7.684046,-6.813194
1,1,1,0.5,0,0.5,0,-->,16.609407,-7.873094,-0.241416
1,1,1,0.5,0,0.5,0.5,-->,14.908056,-0.596515,-2.063578
1,1,1,0.5,0,0.5,1,-->,11.291406,5.680748,-6.445549
1,1,1,0.5,0,1,0,-->,16.557407,-11.101233,-2.033993
1,1,1,0.5,0,1,0.5,-->,13.447605,-5.009142,-3.719203
1,1,1,0.5,0,1,1,-->,9.249857,3.216885,-5.996010
1,1,1,0.5,0.5,0,0,-->,18.231478,3.291178,6.554869
1,1,1,0.5,0.5,0,0.5,-->,15.161866,3.358860,0.824898
1,1,1,0.5,0.5,0,1,-->,11.213509,6.270051,-5.949189
1,1,1,0.5,0.5,0.5,0,-->,16.818100,-0.043812,2.396873
1,1,1,0.5,0.5,0.5,0.5,-->,14.751725,0.991298,-1.045620
1,1,1,0.5,0.5,0.5,1,-->,10.845111,5.837452,-6.308520
1,1,1,0.5,0.5,1,0,-->,15.033494,-4.442767,-1.821957
1,1,1,0.5,0.5,1,0.5,-->,12.971608,-3.832026,-3.637872
1,1,1,0.5,0.5,1,1,-->,8.933743,3.557453,-5.940791
1,1,1,0.5,1,0,0,-->,17.850029,8.239972,10.706541
1,1,1,0.5,1,0,0.5,-->,14.151933,6.690461,4.053828
1,1,1,0.5,1,0,1,-->,9.160050,4.606060,-4.928845
1,1,1,0.5,1,0.5,0,-->,15.780290,6.087144,5.203844
1,1,1,0.5,1,0.5,0.5,-->,13.649006,6.140600,2.965445
1,1,1,0.5,1,0.5,1,-->,8.889448,4.318658,-5.355060
1,1,1,0.5,1,1,0,-->,13.231871,3.436984,-1.570676
1,1,1,0.5,1,1,0.5,-->,11.247035,3.640136,-3.396600
1,1,1,0.5,1,1,1,-->,8.550811,3.990143,-5.890330
1,1,1,1,0,0,0,-->,13.948716,-0.350197,6.000007
1,1,1,1,0,0,0.5,-->,12.591262,-0.045484,3.493297
1,1,1,1,0,0,1,-->,10.759830,0.369652,0.105064
1,1,1,1,0,0.5,0,-->,12.760633,-0.779604,3.576315
1,1,1,1,0,0.5,0.5,-->,12.397072,-0.432485,3.137514
1,1,1,1,0,0.5,1,-->,10.716231,-0.014021,0.066291
1,1,1,1,0,1,0,-->,11.297898,-1.303505,0.591438
1,1,1,1,0,1,0.5,-->,11.027714,-0.952411,0.346351
1,1,1,1,0,1,1,-->,10.662553,-0.482491,0.015572
1,1,1,1,0.5,0,0,-->,12.870943,-0.328812,4.050453
1,1,1,1,0.5,0,0.5,-->,12.401354,-0.357021,3.194542
1,1,1,1,0.5,0,1,-->,10.708181,0.002166,0.066170
1,1,1,1,0.5,0.5,0,-->,12.541619,-0.370716,3.240033
1,1,1,1,0.5,0.5,0.5,-->,12.341807,-0.387587,3.064862
1,1,1,1,0.5,0.5,1,-->,10.702424,-0.022396,0.063069
1,1,1,1,0.5,1,0,-->,11.168270,-0.854361,0.420341
1,1,1,1,0.5,1,0.5,-->,11.001277,-0.870739,0.325513
1,1,1,1,0.5,1,1,-->,10.652678,-0.453977,0.018824
1,1,1,1,1,0,0,-->,11.597331,-0.299614,1.743187
1,1,1,1,1,0,0.5,-->,11.193656,-0.355319,1.007896
1,1,1,1,1,0,1,-->,10.648873,-0.428017,0.019463
1,1,1,1,1,0.5,0,-->,11.335734,-0.313567,1.059558
1,1,1,1,1,0.5,0.5,-->,11.156023,-0.354453,0.917947
1,1,1,1,1,0.5,1,-->,10.644944,-0.424931,0.019463
1,1,1,1,1,1,0,-->,11.013665,-0.326851,0.221794
1,1,1,1,1,1,0.5,-->,10.854750,-0.369333,0.135691
1,1,1,1,1,1,1,-->,10.639754,-0.424126,0.019463
-0.1,0.5,0.5,0.5,0.5,0.5,0.5,-->,23.963600,14.582135,15.318886
1.1,0.5,0.5,0.5,0.5,0.5,0.5,-->,20.261866,-6.628479,-8.400688
0.5,-0.1,0.5,0.5,0.5,0.5,0.5,-->,24.727739,-3.048607,11.027168
0.5,1.1,0.5,0.5,0.5,0.5,0.5,-->,18.877794,21.268909,1.150905
0.5,0.5,-0.1,0.5,0.5,0.5,0.5,-->,19.340336,8.520518,-2.140402
0.5,0.5,1.1,0.5,0.5,0.5,0.5,-->,27.841429,2.260841,21.711632
0.5,0.5,0.5,-0.1,0.5,0.5,0.5,-->,27.751911,11.233238,10.882183
0.5,0.5,0.5,1.1,0.5,0.5,0.5,-->,13.995108,-0.665747,0.532496
0.5,0.5,0.5,0.5,-0.1,0.5,0.5,-->,22.422167,0.161195,-1.502553
0.5,0.5,0.5,0.5,1.1,0.5,0.5,-->,23.428833,16.686432,20.992771
0.5,0.5,0.5,0.5,0.5,-0.1,0.5,-->,23.353247,18.322989,10.328918
0.5,0.5,0.5,0.5,0.5,1.1,0.5,-->,21.440857,-15.654286,2.116312
0.5,0.5,0.5,0.5,0.5,0.5,-0.1,-->,28.002687,2.035877,16.777748
0.5,0.5,0.5,0.5,0.5,0.5,1.1,-->,13.135192,13.637095,-10.693911
