0,-127,-127,-->,1.000000,0.187311,0.232020,0.677377,0.000000,0.092925,0.000000
0,-127,-100,-->,1.000000,0.180761,0.270010,0.685700,0.000000,0.196106,0.000000
0,-127,-75,-->,1.000000,0.171260,0.322756,0.691620,0.000000,0.350072,0.000000
0,-127,-50,-->,0.988408,0.163189,0.374573,0.701942,0.000000,0.552118,0.000000
0,-127,-25,-->,0.944053,0.154325,0.421850,0.715088,0.000000,0.798691,0.000000
0,-127,0,-->,0.836924,0.148749,0.493632,0.729931,0.000000,0.978095,0.000000
0,-127,25,-->,0.677611,0.150162,0.603910,0.746773,0.000000,1.000000,0.000000
0,-127,50,-->,0.584376,0.162050,0.705211,0.766145,0.000000,1.000000,0.000000
0,-127,75,-->,0.548515,0.183635,0.776476,0.796188,0.000000,0.958489,0.000000
0,-127,100,-->,0.514360,0.205217,0.839941,0.806551,0.000000,0.860592,0.000000
0,-127,128,-->,0.503788,0.224147,0.866570,0.817793,0.000000,0.758506,0.000000
0,-100,-127,-->,1.000000,0.195002,0.211261,0.680430,0.000000,0.031919,0.000000
0,-100,-100,-->,1.000000,0.191954,0.239576,0.696273,0.000000,0.092302,0.000000
0,-100,-75,-->,1.000000,0.185001,0.285845,0.707071,0.000000,0.215878,0.000000
0,-100,-50,-->,0.997732,0.175891,0.353048,0.719483,0.000000,0.430869,0.000000
0,-100,-25,-->,0.960281,0.165595,0.423560,0.735175,0.000000,0.727642,0.000000
0,-100,0,-->,0.849266,0.158064,0.506411,0.749871,0.000000,0.973203,0.000000
0,-100,25,-->,0.669692,0.160085,0.626060,0.770611,0.000000,1.000000,0.000000
0,-100,50,-->,0.599175,0.179587,0.722497,0.800312,0.000000,0.991914,0.000000
0,-100,75,-->,0.540443,0.210847,0.820723,0.817604,0.000000,0.877451,0.000000
0,-100,100,-->,0.522298,0.233618,0.857764,0.829843,0.000000,0.760937,0.000000
0,-100,128,-->,0.503172,0.253671,0.872080,0.836601,0.000000,0.644941,0.000000
0,-75,-127,-->,1.000000,0.202020,0.194777,0.675453,0.000000,0.000051,0.013905
0,-75,-100,-->,1.000000,0.202452,0.213509,0.701448,0.000000,0.017715,0.000000
0,-75,-75,-->,1.000000,0.199712,0.248139,0.722234,0.000000,0.085593,0.000000
0,-75,-50,-->,1.000000,0.192642,0.317004,0.741590,0.000000,0.263245,0.000000
0,-75,-25,-->,0.977741,0.185063,0.419033,0.764598,0.000000,0.606403,0.000000
0,-75,0,-->,0.875666,0.176176,0.533022,0.781669,0.000000,0.968665,0.000000
0,-75,25,-->,0.677194,0.178964,0.657691,0.805550,0.000000,1.000000,0.000000
0,-75,50,-->,0.605822,0.216544,0.783993,0.832349,0.000000,0.920926,0.000000
0,-75,75,-->,0.546341,0.251186,0.846954,0.846659,0.000000,0.749533,0.000000
0,-75,100,-->,0.519987,0.274573,0.859905,0.851606,0.000000,0.611317,0.000000
0,-75,128,-->,0.499069,0.291644,0.867037,0.854111,0.000000,0.509368,0.000000
0,-50,-127,-->,1.000000,0.208159,0.182902,0.668424,0.000000,0.000000,0.033892
0,-50,-100,-->,1.000000,0.211404,0.193762,0.697832,0.000000,0.000000,0.020142
0,-50,-75,-->,1.000000,0.215100,0.211080,0.731655,0.000000,0.000000,0.002144
0,-50,-50,-->,1.000000,0.218796,0.259425,0.766650,0.000000,0.061271,0.000000
0,-50,-25,-->,0.995629,0.220889,0.393504,0.807517,0.000000,0.384503,0.000000
0,-50,0,-->,0.921716,0.217353,0.596937,0.836764,0.000000,0.973744,0.000000
0,-50,25,-->,0.743697,0.235008,0.746208,0.857374,0.000000,0.991070,0.000000
0,-50,50,-->,0.611900,0.285529,0.820680,0.874402,0.000000,0.721345,0.000000
0,-50,75,-->,0.546461,0.313397,0.838252,0.873772,0.000550,0.539270,0.000000
0,-50,100,-->,0.518221,0.325538,0.849582,0.872308,0.000612,0.445344,0.000000
0,-50,128,-->,0.491646,0.339995,0.853346,0.869433,0.000057,0.359894,0.000000
0,-25,-127,-->,1.000000,0.213798,0.172210,0.651712,0.000000,0.000000,0.070349
0,-25,-100,-->,1.000000,0.219403,0.175778,0.673538,0.000000,0.000000,0.079210
0,-25,-75,-->,1.000000,0.229879,0.183911,0.709546,0.000000,0.000000,0.083481
0,-25,-50,-->,1.000000,0.257055,0.199297,0.762096,0.000000,0.000000,0.105452
0,-25,-25,-->,1.000000,0.293799,0.300703,0.846119,0.000000,0.085382,0.091288
0,-25,0,-->,0.945444,0.323561,0.674576,0.924540,0.000000,0.855315,0.000000
0,-25,25,-->,0.715485,0.348952,0.733206,0.918616,0.000000,0.574708,0.000000
0,-25,50,-->,0.574387,0.376305,0.775036,0.909768,0.001080,0.272537,0.000000
0,-25,75,-->,0.521875,0.399011,0.802739,0.895031,0.000719,0.234087,0.000000
0,-25,100,-->,0.488963,0.406549,0.818043,0.885711,0.000000,0.194563,0.000000
0,-25,128,-->,0.466622,0.410443,0.827597,0.879556,0.000000,0.159958,0.000000
0,0,-127,-->,1.000000,0.216495,0.155711,0.615503,0.000000,0.000000,0.138971
0,0,-100,-->,1.000000,0.226641,0.154644,0.628637,0.000000,0.000000,0.172617
0,0,-75,-->,1.000000,0.254699,0.150307,0.616871,0.000000,0.000000,0.279502
0,0,-50,-->,1.000000,0.276890,0.142585,0.626131,0.000000,0.000000,0.553824
0,0,-25,-->,1.000000,0.407988,0.194803,0.814880,0.000000,0.000000,0.620389
0,0,0,-->,0.967093,0.590448,0.431872,1.000000,0.000000,0.000000,0.000000
0,0,25,-->,0.617549,0.607067,0.628477,0.955502,0.012716,0.000000,0.000000
0,0,50,-->,0.522844,0.571759,0.730051,0.925846,0.008920,0.000000,0.000000
0,0,75,-->,0.483888,0.527690,0.765446,0.908920,0.000000,0.000000,0.000000
0,0,100,-->,0.460155,0.501346,0.787884,0.897782,0.000000,0.000000,0.000000
0,0,128,-->,0.444249,0.483594,0.803686,0.889733,0.000000,0.000000,0.000000
0,25,-127,-->,1.000000,0.217333,0.135525,0.563790,0.000000,0.000000,0.229206
0,25,-100,-->,1.000000,0.233652,0.126284,0.540078,0.000000,0.000000,0.330890
0,25,-75,-->,1.000000,0.204190,0.105108,0.492010,0.000000,0.000000,0.592028
0,25,-50,-->,0.859674,0.276851,0.066760,0.447357,0.000000,0.000000,0.880257
0,25,-25,-->,0.491149,0.644059,0.082529,0.562665,0.000000,0.000000,1.000000
0,25,0,-->,0.477167,0.866065,0.196650,0.843179,0.000000,0.000000,0.779933
0,25,25,-->,0.430834,0.835811,0.687750,0.893903,0.502674,0.000000,0.061519
0,25,50,-->,0.441485,0.773491,0.806678,0.913164,0.586762,0.000000,0.000000
0,25,75,-->,0.442258,0.695677,0.818812,0.907703,0.447682,0.000000,0.000000
0,25,100,-->,0.434911,0.638978,0.825193,0.900094,0.349914,0.000000,0.000000
0,25,128,-->,0.427249,0.595111,0.830552,0.893266,0.275872,0.000000,0.000000
0,50,-127,-->,1.000000,0.215830,0.109166,0.488071,0.000000,0.000000,0.348097
0,50,-100,-->,1.000000,0.177221,0.092592,0.441429,0.000000,0.000000,0.536234
0,50,-75,-->,0.907673,0.211074,0.055979,0.376880,0.000000,0.000000,0.803622
0,50,-50,-->,0.507342,0.490875,0.029944,0.350157,0.000000,0.000000,1.000000
0,50,-25,-->,0.204740,0.910306,0.066705,0.431372,0.000000,0.000000,0.910937
0,50,0,-->,0.287310,0.976921,0.212807,0.696043,0.045399,0.000000,0.321187
0,50,25,-->,0.275940,0.938885,0.502783,0.787853,0.434775,0.000000,0.036325
0,50,50,-->,0.346091,0.888545,0.713871,0.859783,0.726563,0.000000,0.000000
0,50,75,-->,0.386124,0.819242,0.789634,0.884749,0.698113,0.000000,0.000000
0,50,100,-->,0.402236,0.763682,0.834024,0.893663,0.647920,0.000000,0.000000
0,50,128,-->,0.408110,0.712594,0.858698,0.895382,0.581164,0.000000,0.000000
0,75,-127,-->,1.000000,0.167880,0.081321,0.397711,0.000000,0.000000,0.509822
0,75,-100,-->,0.980229,0.144230,0.052517,0.332494,0.000000,0.000000,0.743433
0,75,-75,-->,0.655735,0.327686,0.017678,0.208527,0.000000,0.000000,0.992775
0,75,-50,-->,0.128249,0.891975,0.024233,0.243761,0.000000,0.000000,0.949429
0,75,-25,-->,0.123827,1.000000,0.086624,0.396578,0.000515,0.000000,0.640235
0,75,0,-->,0.208985,1.000000,0.228315,0.639338,0.062852,0.000000,0.092581
0,75,25,-->,0.187495,0.986968,0.351510,0.678321,0.287989,0.000000,0.000000
0,75,50,-->,0.249881,0.947442,0.520270,0.774945,0.541182,0.000000,0.000000
0,75,75,-->,0.319376,0.896757,0.684969,0.839545,0.729367,0.000000,0.000000
0,75,100,-->,0.355244,0.845450,0.770939,0.868161,0.768351,0.000000,0.000000
0,75,128,-->,0.373725,0.787430,0.815977,0.878520,0.713302,0.000000,0.000000
0,100,-127,-->,1.000000,0.106963,0.044670,0.270633,0.000000,0.000000,0.700855
0,100,-100,-->,0.806399,0.188860,0.019598,0.191118,0.000000,0.000000,0.941980
0,100,-75,-->,0.127879,0.827256,0.004256,0.097136,0.000000,0.000000,0.989163
0,100,-50,-->,0.058893,1.000000,0.042023,0.224496,0.000579,0.000000,0.766081
0,100,-25,-->,0.137897,1.000000,0.119239,0.438297,0.006233,0.000000,0.379227
0,100,0,-->,0.181143,1.000000,0.231951,0.616370,0.073551,0.000000,0.031974
0,100,25,-->,0.165247,1.000000,0.306388,0.632440,0.240007,0.000000,0.000000
0,100,50,-->,0.188593,0.980983,0.393728,0.689847,0.411380,0.000000,0.000000
0,100,75,-->,0.255320,0.939315,0.553993,0.781888,0.620459,0.000000,0.000000
0,100,100,-->,0.303888,0.895794,0.672658,0.828175,0.741474,0.000000,0.000000
0,100,128,-->,0.337786,0.852548,0.760815,0.857931,0.804507,0.000000,0.000000
0,128,-127,-->,0.876240,0.121775,0.016877,0.140556,0.000000,0.000000,0.897714
0,128,-100,-->,0.121100,0.787928,0.000000,0.009742,0.000000,0.000000,0.993061
0,128,-75,-->,0.028670,0.998598,0.011577,0.089078,0.000000,0.000000,0.855834
0,128,-50,-->,0.080649,1.000000,0.061375,0.256476,0.004995,0.000000,0.587250
0,128,-25,-->,0.147545,1.000000,0.149789,0.492197,0.015237,0.000000,0.189821
0,128,0,-->,0.165782,1.000000,0.228370,0.595655,0.082745,0.000000,0.012197
0,128,25,-->,0.156570,1.000000,0.280960,0.604307,0.208005,0.000000,0.000000
0,128,50,-->,0.156589,1.000000,0.324545,0.625917,0.339803,0.000000,0.000000
0,128,75,-->,0.193666,0.974319,0.423888,0.703322,0.496715,0.000000,0.000000
0,128,100,-->,0.250201,0.935771,0.559911,0.777970,0.658212,0.000000,0.000000
0,128,128,-->,0.291759,0.894000,0.664837,0.819707,0.759289,0.000000,0.000000
20,-127,-127,-->,1.000000,0.143995,0.168871,0.538299,0.000000,0.062906,0.000000
20,-127,-100,-->,1.000000,0.137325,0.188485,0.536179,0.000000,0.131520,0.000000
20,-127,-75,-->,1.000000,0.127696,0.213141,0.527869,0.000000,0.239500,0.000000
20,-127,-50,-->,1.000000,0.111111,0.244434,0.509194,0.000000,0.457593,0.000000
20,-127,-25,-->,0.965907,0.093930,0.279204,0.509577,0.000000,0.770514,0.000000
20,-127,0,-->,0.779368,0.081164,0.377148,0.546997,0.000000,1.000000,0.000000
20,-127,25,-->,0.534420,0.079690,0.596046,0.576361,0.000000,1.000000,0.000000
20,-127,50,-->,0.396787,0.101097,0.820073,0.601563,0.000000,1.000000,0.000000
20,-127,75,-->,0.361623,0.131478,0.933251,0.649436,0.000000,0.925708,0.000000
20,-127,100,-->,0.367927,0.149893,0.949739,0.682024,0.000000,0.831567,0.000000
20,-127,128,-->,0.376051,0.165213,0.956043,0.708735,0.000000,0.745756,0.000000
20,-100,-127,-->,1.000000,0.148969,0.151333,0.530915,0.000000,0.017061,0.010844
20,-100,-100,-->,1.000000,0.144077,0.168962,0.538387,0.000000,0.063172,0.000000
20,-100,-75,-->,1.000000,0.135853,0.192397,0.535042,0.000000,0.147678,0.000000
20,-100,-50,-->,1.000000,0.121099,0.227376,0.520463,0.000000,0.320881,0.000000
20,-100,-25,-->,0.986984,0.098072,0.265778,0.504808,0.000000,0.682637,0.000000
20,-100,0,-->,0.786157,0.081634,0.373121,0.547059,0.000000,0.999864,0.000000
20,-100,25,-->,0.489384,0.082795,0.655896,0.580832,0.000000,1.000000,0.000000
20,-100,50,-->,0.371302,0.118303,0.892530,0.627394,0.000000,0.966112,0.000000
20,-100,75,-->,0.365728,0.146202,0.948356,0.675394,0.000000,0.851503,0.000000
20,-100,100,-->,0.375542,0.164123,0.955530,0.706828,0.000000,0.751984,0.000000
20,-100,128,-->,0.380790,0.178894,0.954961,0.728878,0.000000,0.663422,0.000000
20,-75,-127,-->,1.000000,0.151582,0.136343,0.510979,0.000000,0.000000,0.028763
20,-75,-100,-->,1.000000,0.149597,0.148991,0.528457,0.000000,0.012629,0.013520
20,-75,-75,-->,1.000000,0.143877,0.169449,0.538274,0.000000,0.064922,0.000000
20,-75,-50,-->,1.000000,0.131991,0.202568,0.531899,0.000000,0.190897,0.000000
20,-75,-25,-->,1.000000,0.105404,0.251647,0.504251,0.000000,0.544012,0.000000
20,-75,0,-->,0.796436,0.090113,0.384093,0.568459,0.000000,0.994760,0.000000
20,-75,25,-->,0.445123,0.094992,0.743924,0.601975,0.000000,1.000000,0.000000
20,-75,50,-->,0.362132,0.137083,0.941268,0.659247,0.000000,0.899132,0.000000
20,-75,75,-->,0.374973,0.162849,0.955014,0.704683,0.000000,0.759226,0.000000
20,-75,100,-->,0.380635,0.179843,0.954500,0.729936,0.000000,0.655037,0.000000
20,-75,128,-->,0.382815,0.195680,0.947423,0.749260,0.000000,0.553828,0.000000
20,-50,-127,-->,1.000000,0.151442,0.121261,0.480951,0.000000,0.000000,0.051058
20,-50,-100,-->,1.000000,0.151671,0.130186,0.498839,0.000000,0.000000,0.037764
20,-50,-75,-->,1.000000,0.150777,0.142977,0.521085,0.000000,0.002171,0.020436
20,-50,-50,-->,1.000000,0.143718,0.169984,0.538123,0.000000,0.066943,0.000000
20,-50,-25,-->,1.000000,0.133275,0.251479,0.557416,0.000000,0.332379,0.000000
20,-50,0,-->,0.851654,0.115664,0.411447,0.638904,0.000000,0.992314,0.000000
20,-50,25,-->,0.414046,0.129699,0.856840,0.669479,0.000000,0.977931,0.000000
20,-50,50,-->,0.374006,0.160637,0.954095,0.701034,0.000000,0.771808,0.000000
20,-50,75,-->,0.382224,0.185587,0.951739,0.737684,0.000000,0.619297,0.000000
20,-50,100,-->,0.382334,0.205693,0.941511,0.758403,0.000000,0.498022,0.000000
20,-50,128,-->,0.378547,0.225462,0.931815,0.773084,0.000000,0.400535,0.000000
20,-25,-127,-->,1.000000,0.149212,0.102923,0.430467,0.000000,0.000000,0.097231
20,-25,-100,-->,1.000000,0.150129,0.107630,0.445602,0.000000,0.000000,0.082250
20,-25,-75,-->,1.000000,0.150904,0.115337,0.466489,0.000000,0.000000,0.063010
20,-25,-50,-->,1.000000,0.154888,0.130800,0.502341,0.000000,0.000000,0.041792
20,-25,-25,-->,1.000000,0.189952,0.212388,0.666577,0.000000,0.049717,0.000000
20,-25,0,-->,0.985765,0.166880,0.452700,0.765666,0.000000,0.930833,0.000000
20,-25,25,-->,0.414400,0.183465,0.929613,0.753819,0.000000,0.782391,0.000000
20,-25,50,-->,0.382053,0.204383,0.942162,0.756764,0.000000,0.506302,0.000000
20,-25,75,-->,0.376228,0.236122,0.927494,0.780556,0.000000,0.353570,0.000000
20,-25,100,-->,0.370143,0.255436,0.919651,0.792035,0.000000,0.272768,0.000000
20,-25,128,-->,0.361790,0.270979,0.913568,0.797711,0.000000,0.213749,0.000000
20,0,-127,-->,1.000000,0.141335,0.083381,0.358464,0.000000,0.000000,0.167305
20,0,-100,-->,1.000000,0.141197,0.083259,0.357986,0.000000,0.000000,0.167561
20,0,-75,-->,1.000000,0.141094,0.083096,0.357347,0.000000,0.000000,0.168121
20,0,-50,-->,1.000000,0.173883,0.093699,0.413876,0.000000,0.000000,0.295586
20,0,-25,-->,1.000000,0.276949,0.131942,0.570706,0.000000,0.000000,0.487366
20,0,0,-->,0.526871,0.398743,0.288911,0.892106,0.000000,0.000000,0.000000
20,0,25,-->,0.350173,0.382030,0.879965,0.836492,0.000000,0.000000,0.000000
20,0,50,-->,0.328595,0.336284,0.887344,0.818822,0.000000,0.000000,0.000000
20,0,75,-->,0.329046,0.335006,0.887847,0.818381,0.000000,0.000000,0.000000
20,0,100,-->,0.329131,0.334259,0.888177,0.818067,0.000000,0.000000,0.000000
20,0,128,-->,0.329313,0.333910,0.888313,0.817979,0.000000,0.000000,0.000000
20,25,-127,-->,1.000000,0.121703,0.061362,0.273371,0.000000,0.000000,0.253982
20,25,-100,-->,1.000000,0.113918,0.055451,0.249739,0.000000,0.000000,0.279971
20,25,-75,-->,1.000000,0.096429,0.043460,0.208869,0.000000,0.000000,0.405045
20,25,-50,-->,0.915969,0.068465,0.021803,0.181972,0.000000,0.000000,0.912982
20,25,-25,-->,0.315269,0.492379,0.070795,0.381196,0.000000,0.000000,0.901959
20,25,0,-->,0.261389,0.987589,0.196984,0.739531,0.000000,0.000000,0.133845
20,25,25,-->,0.217065,0.841883,0.618270,0.776353,0.942849,0.000000,0.000000
20,25,50,-->,0.268494,0.593406,0.873756,0.803270,0.686446,0.000000,0.000000
20,25,75,-->,0.300281,0.509070,0.929811,0.816983,0.457471,0.000000,0.000000
20,25,100,-->,0.312952,0.466972,0.942472,0.820781,0.335951,0.000000,0.000000
20,25,128,-->,0.317449,0.436629,0.933203,0.820940,0.254082,0.000000,0.000000
20,50,-127,-->,1.000000,0.088495,0.039717,0.184080,0.000000,0.000000,0.347901
20,50,-100,-->,1.000000,0.064760,0.027967,0.134017,0.000000,0.000000,0.406664
20,50,-75,-->,0.844820,0.037440,0.000129,0.000000,0.000000,0.000000,0.896987
20,50,-50,-->,0.181648,0.434766,0.000000,0.000000,0.000000,0.000000,0.990023
20,50,-25,-->,0.007172,0.971991,0.000000,0.007078,0.000000,0.000000,0.899206
20,50,0,-->,0.146424,1.000000,0.183902,0.539921,0.038600,0.000000,0.000000
20,50,25,-->,0.118015,1.000000,0.284210,0.537964,0.461573,0.000000,0.000000
20,50,50,-->,0.169793,0.899121,0.511968,0.695176,0.890313,0.000000,0.000000
20,50,75,-->,0.235262,0.673352,0.776650,0.786097,0.869352,0.000000,0.000000
20,50,100,-->,0.272404,0.583159,0.884126,0.805318,0.662656,0.000000,0.000000
20,50,128,-->,0.292153,0.530435,0.919044,0.813923,0.519985,0.000000,0.000000
20,75,-127,-->,1.000000,0.043834,0.018847,0.094730,0.000000,0.000000,0.444144
20,75,-100,-->,0.942907,0.010157,0.000795,0.002610,0.000000,0.000000,0.785161
20,75,-75,-->,0.203401,0.285430,0.000000,0.000000,0.000000,0.000000,0.977117
20,75,-50,-->,0.008990,0.861891,0.000000,0.000000,0.000000,0.000000,0.786072
20,75,-25,-->,0.031418,1.000000,0.027868,0.095529,0.008934,0.000000,0.404251
20,75,0,-->,0.094881,1.000000,0.144764,0.374266,0.103214,0.000000,0.000000
20,75,25,-->,0.081278,1.000000,0.194360,0.395120,0.348471,0.000000,0.000000
20,75,50,-->,0.106453,1.000000,0.283320,0.522879,0.635522,0.000000,0.000000
20,75,75,-->,0.173983,0.888797,0.527818,0.703985,0.903103,0.000000,0.000000
20,75,100,-->,0.219467,0.715562,0.722990,0.774502,0.932868,0.000000,0.000000
20,75,128,-->,0.255932,0.623532,0.840938,0.797145,0.760911,0.000000,0.000000
20,100,-127,-->,0.984907,0.003141,0.001731,0.012614,0.000000,0.000000,0.586214
20,100,-100,-->,0.337411,0.177815,0.000000,0.000000,0.000000,0.000000,0.974544
20,100,-75,-->,0.027076,0.784159,0.000000,0.000000,0.000000,0.000000,0.750045
20,100,-50,-->,0.003023,1.000000,0.003538,0.010042,0.001977,0.000000,0.501991
20,100,-25,-->,0.056650,1.000000,0.066812,0.197758,0.026366,0.000000,0.211897
20,100,0,-->,0.093790,1.000000,0.145322,0.371607,0.107146,0.000000,0.000000
20,100,25,-->,0.082776,1.000000,0.187064,0.388228,0.278988,0.000000,0.000000
20,100,50,-->,0.079893,1.000000,0.207615,0.415042,0.506847,0.000000,0.000000
20,100,75,-->,0.125247,0.990664,0.343773,0.586464,0.728736,0.000000,0.000000
20,100,100,-->,0.175438,0.884143,0.534277,0.707171,0.908457,0.000000,0.000000
20,100,128,-->,0.214250,0.729247,0.705185,0.770615,0.953163,0.000000,0.000000
20,128,-127,-->,0.567709,0.084566,0.000000,0.000000,0.000000,0.000000,0.962620
20,128,-100,-->,0.043257,0.730396,0.000000,0.000000,0.000000,0.000000,0.754675
20,128,-75,-->,0.000000,0.972061,0.000000,0.000000,0.000000,0.000000,0.574884
20,128,-50,-->,0.018590,1.000000,0.020686,0.063395,0.008524,0.000000,0.407153
20,128,-25,-->,0.077685,1.000000,0.094747,0.278070,0.036354,0.000000,0.100420
20,128,0,-->,0.093276,1.000000,0.146055,0.371264,0.109434,0.000000,0.000000
20,128,25,-->,0.084212,1.000000,0.179287,0.383707,0.237892,0.000000,0.000000
20,128,50,-->,0.079692,1.000000,0.198791,0.399308,0.408621,0.000000,0.000000
20,128,75,-->,0.092936,1.000000,0.244056,0.471321,0.574562,0.000000,0.000000
20,128,100,-->,0.133726,0.978929,0.372925,0.611605,0.763541,0.000000,0.000000
20,128,128,-->,0.176293,0.881883,0.538145,0.709179,0.912009,0.000000,0.000000
40,-127,-127,-->,1.000000,0.045037,0.065485,0.158357,0.000000,0.112650,0.000000
40,-127,-100,-->,1.000000,0.037607,0.069352,0.147459,0.000000,0.206098,0.000000
40,-127,-75,-->,1.000000,0.027512,0.065963,0.126505,0.000000,0.359440,0.000000
40,-127,-50,-->,1.000000,0.015050,0.041926,0.092714,0.000000,0.611320,0.000000
40,-127,-25,-->,0.937773,0.006405,0.043342,0.072983,0.000000,0.892494,0.000000
40,-127,0,-->,0.710904,0.008657,0.237739,0.154012,0.000000,1.000000,0.000000
40,-127,25,-->,0.447425,0.009441,0.554440,0.220634,0.000000,1.000000,0.000000
40,-127,50,-->,0.227390,0.017706,0.763997,0.233881,0.000000,1.000000,0.000000
40,-127,75,-->,0.137295,0.026624,0.894839,0.257155,0.000000,0.976226,0.000000
40,-127,100,-->,0.115849,0.036733,0.966381,0.290009,0.000000,0.922451,0.000000
40,-127,128,-->,0.128837,0.047385,0.990361,0.321648,0.000000,0.842530,0.000000
40,-100,-127,-->,1.000000,0.048274,0.057385,0.153938,0.000000,0.058062,0.011355
40,-100,-100,-->,1.000000,0.045082,0.065228,0.157988,0.000000,0.111156,0.000000
40,-100,-75,-->,1.000000,0.036184,0.069698,0.144848,0.000000,0.225127,0.000000
40,-100,-50,-->,1.000000,0.022582,0.057902,0.113598,0.000000,0.452300,0.000000
40,-100,-25,-->,0.952001,0.010317,0.049262,0.098071,0.000000,0.860258,0.000000
40,-100,0,-->,0.703191,0.011673,0.254773,0.192724,0.000000,1.000000,0.000000
40,-100,25,-->,0.412526,0.014691,0.591202,0.266691,0.000000,1.000000,0.000000
40,-100,50,-->,0.191205,0.024111,0.823407,0.267707,0.000000,0.996909,0.000000
40,-100,75,-->,0.117184,0.034788,0.955353,0.283667,0.000000,0.935062,0.000000
40,-100,100,-->,0.127768,0.046726,0.989502,0.319791,0.000000,0.847605,0.000000
40,-100,128,-->,0.151360,0.059181,1.000000,0.356478,0.000000,0.746580,0.000000
40,-75,-127,-->,1.000000,0.047770,0.046029,0.134328,0.000000,0.022456,0.035130
40,-75,-100,-->,1.000000,0.048323,0.055015,0.150451,0.000000,0.049741,0.015866
40,-75,-75,-->,1.000000,0.045270,0.064896,0.157901,0.000000,0.108345,0.000000
40,-75,-50,-->,1.000000,0.033740,0.073536,0.146002,0.000000,0.290347,0.000000
40,-75,-25,-->,0.981160,0.019284,0.065999,0.149843,0.000000,0.785219,0.000000
40,-75,0,-->,0.703525,0.016061,0.270482,0.245378,0.000000,1.000000,0.000000
40,-75,25,-->,0.379362,0.022980,0.646501,0.330298,0.000000,1.000000,0.000000
40,-75,50,-->,0.162317,0.036988,0.899894,0.321112,0.000000,0.968718,0.000000
40,-75,75,-->,0.127287,0.046420,0.989053,0.318949,0.000000,0.850086,0.000000
40,-75,100,-->,0.155138,0.061043,1.000000,0.361858,0.000000,0.731349,0.000000
40,-75,128,-->,0.181692,0.075516,1.000000,0.402792,0.000000,0.613778,0.000000
40,-50,-127,-->,1.000000,0.043432,0.032126,0.097799,0.000000,0.000000,0.069445
40,-50,-100,-->,1.000000,0.046149,0.039644,0.118852,0.000000,0.009130,0.050100
40,-50,-75,-->,1.000000,0.048213,0.049851,0.141882,0.000000,0.033051,0.026739
40,-50,-50,-->,1.000000,0.060364,0.084100,0.221593,0.000000,0.095348,0.000000
40,-50,-25,-->,1.000000,0.043958,0.117837,0.255513,0.000000,0.527108,0.000000
40,-50,0,-->,0.644912,0.052089,0.275934,0.356619,0.000000,0.921023,0.000000
40,-50,25,-->,0.271874,0.061125,0.741773,0.438161,0.000000,0.980425,0.000000
40,-50,50,-->,0.170789,0.062197,0.981864,0.396933,0.000000,0.853472,0.000000
40,-50,75,-->,0.167498,0.067415,1.000000,0.380247,0.000000,0.679851,0.000000
40,-50,100,-->,0.194206,0.084461,1.000000,0.426647,0.000000,0.542396,0.000000
40,-50,128,-->,0.207918,0.098324,1.000000,0.461488,0.000000,0.437174,0.000000
40,-25,-127,-->,1.000000,0.031380,0.019420,0.058548,0.000000,0.000000,0.122965
40,-25,-100,-->,1.000000,0.034625,0.022401,0.067277,0.000000,0.000000,0.109216
40,-25,-75,-->,1.000000,0.048425,0.031839,0.104586,0.000000,0.000000,0.118718
40,-25,-50,-->,1.000000,0.079988,0.049747,0.202777,0.000000,0.000000,0.133465
40,-25,-25,-->,0.927472,0.121009,0.125640,0.455881,0.000000,0.005938,0.000000
40,-25,0,-->,0.622230,0.122422,0.369352,0.509062,0.000000,0.363185,0.000000
40,-25,25,-->,0.329836,0.127809,0.784190,0.551873,0.000000,0.540656,0.000000
40,-25,50,-->,0.242213,0.114652,1.000000,0.517415,0.000000,0.478710,0.000000
40,-25,75,-->,0.211521,0.106135,1.000000,0.479106,0.000000,0.381853,0.000000
40,-25,100,-->,0.215794,0.119072,1.000000,0.507219,0.000000,0.293175,0.000000
40,-25,128,-->,0.212393,0.129178,1.000000,0.524521,0.000000,0.232002,0.000000
40,0,-127,-->,1.000000,0.018760,0.008333,0.027732,0.000000,0.000000,0.175394
40,0,-100,-->,1.000000,0.020013,0.008602,0.029448,0.000000,0.000000,0.183190
40,0,-75,-->,1.000000,0.000788,0.000584,0.001507,0.000000,0.000000,0.356734
40,0,-50,-->,0.874784,0.029725,0.005121,0.026173,0.000000,0.000000,0.490944
40,0,-25,-->,0.646419,0.255375,0.080800,0.317663,0.000000,0.000000,0.287091
40,0,0,-->,0.278691,0.234147,0.188249,0.677006,0.000000,0.000000,0.000000
40,0,25,-->,0.193275,0.217444,0.722730,0.682530,0.000000,0.000000,0.000000
40,0,50,-->,0.177733,0.205867,0.998795,0.621907,0.006746,0.000000,0.000000
40,0,75,-->,0.165668,0.177877,1.000000,0.590158,0.000000,0.000000,0.000000
40,0,100,-->,0.166495,0.177182,1.000000,0.589232,0.000000,0.000000,0.000000
40,0,128,-->,0.167043,0.176724,1.000000,0.588645,0.000000,0.000000,0.000000
40,25,-127,-->,0.978283,0.011485,0.002589,0.009433,0.000000,0.000000,0.260751
40,25,-100,-->,0.974862,0.000000,0.000000,0.000000,0.000000,0.000000,0.369655
40,25,-75,-->,0.850930,0.023324,0.000000,0.000000,0.000000,0.000000,0.595530
40,25,-50,-->,0.448875,0.122407,0.000000,0.000000,0.000000,0.000000,0.679594
40,25,-25,-->,0.249079,0.418509,0.030036,0.117555,0.000000,0.000000,0.527454
40,25,0,-->,0.146816,0.662706,0.165449,0.529980,0.000000,0.000000,0.000000
40,25,25,-->,0.137905,0.516474,0.475573,0.532587,0.391517,0.000000,0.000000
40,25,50,-->,0.120065,0.280345,0.993041,0.559719,0.637913,0.000000,0.000000
40,25,75,-->,0.127781,0.268215,1.000000,0.547223,0.362016,0.000000,0.000000
40,25,100,-->,0.139864,0.262761,1.000000,0.567464,0.246562,0.000000,0.000000
40,25,128,-->,0.146964,0.253211,1.000000,0.577654,0.177452,0.000000,0.000000
40,50,-127,-->,0.932348,0.000000,0.000000,0.000000,0.000000,0.000000,0.462417
40,50,-100,-->,0.871162,0.021262,0.000000,0.000000,0.000000,0.000000,0.626847
40,50,-75,-->,0.431462,0.136989,0.000000,0.000000,0.000000,0.000000,0.745654
40,50,-50,-->,0.143126,0.457830,0.000000,0.000000,0.000000,0.000000,0.657170
40,50,-25,-->,0.058310,0.722609,0.000000,0.000000,0.000000,0.000000,0.525327
40,50,0,-->,0.092504,0.926066,0.121906,0.421638,0.003635,0.000000,0.000000
40,50,25,-->,0.069818,0.855913,0.217779,0.340870,0.458607,0.000000,0.000000
40,50,50,-->,0.037437,0.699219,0.315488,0.378237,0.988170,0.000000,0.000000
40,50,75,-->,0.062240,0.336090,0.817832,0.451478,0.901074,0.000000,0.000000
40,50,100,-->,0.100043,0.272288,0.989551,0.509167,0.617858,0.000000,0.000000
40,50,128,-->,0.121056,0.269509,1.000000,0.536717,0.426313,0.000000,0.000000
40,75,-127,-->,0.823593,0.039823,0.000000,0.000000,0.000000,0.000000,0.694150
40,75,-100,-->,0.489733,0.110080,0.000000,0.000000,0.000000,0.000000,0.801692
40,75,-75,-->,0.150665,0.433499,0.000000,0.000000,0.000000,0.000000,0.733898
40,75,-50,-->,0.049516,0.769041,0.000000,0.000000,0.000000,0.000000,0.540035
40,75,-25,-->,0.000000,0.954451,0.000000,0.000000,0.000000,0.000000,0.352688
40,75,0,-->,0.038197,1.000000,0.057569,0.130773,0.058842,0.000000,0.002053
40,75,25,-->,0.023584,1.000000,0.064953,0.118585,0.391220,0.000000,0.000000
40,75,50,-->,0.014038,1.000000,0.036440,0.105599,0.749607,0.000000,0.000000
40,75,75,-->,0.013616,0.780271,0.215733,0.191428,0.993815,0.000000,0.000000
40,75,100,-->,0.047512,0.401551,0.705634,0.415786,0.976748,0.000000,0.000000
40,75,128,-->,0.083301,0.283568,0.934879,0.488240,0.758356,0.000000,0.000000
40,100,-127,-->,0.459714,0.111094,0.000000,0.000000,0.000000,0.000000,0.822251
40,100,-100,-->,0.177122,0.367999,0.000000,0.000000,0.000000,0.000000,0.794239
40,100,-75,-->,0.055735,0.749571,0.000000,0.000000,0.000000,0.000000,0.566066
40,100,-50,-->,0.000923,0.937333,0.000000,0.000000,0.000000,0.000000,0.316839
40,100,-25,-->,0.008874,1.000000,0.011831,0.020741,0.015815,0.000000,0.070739
40,100,0,-->,0.012820,1.000000,0.030071,0.042677,0.171325,0.000000,0.000000
40,100,25,-->,0.007819,1.000000,0.021894,0.035554,0.377855,0.000000,0.000000
40,100,50,-->,0.005287,1.000000,0.013298,0.031913,0.579339,0.000000,0.000000
40,100,75,-->,0.004036,0.992527,0.004907,0.036104,0.822671,0.000000,0.000000
40,100,100,-->,0.013924,0.766683,0.230035,0.201373,0.999224,0.000000,0.000000
40,100,128,-->,0.043461,0.424739,0.669531,0.404543,0.994636,0.000000,0.000000
40,128,-127,-->,0.171495,0.361636,0.000000,0.000000,0.000000,0.000000,0.807241
40,128,-100,-->,0.058000,0.742513,0.000000,0.000000,0.000000,0.000000,0.571639
40,128,-75,-->,0.003478,0.931508,0.000000,0.000000,0.000000,0.000000,0.292423
40,128,-50,-->,0.003381,1.000000,0.003340,0.004611,0.009218,0.000000,0.074341
40,128,-25,-->,0.012182,1.000000,0.020953,0.032217,0.083319,0.000000,0.000000
40,128,0,-->,0.009235,1.000000,0.022481,0.031968,0.209027,0.000000,0.000000
40,128,25,-->,0.007274,1.000000,0.019926,0.031465,0.349961,0.000000,0.000000
40,128,50,-->,0.005383,1.000000,0.015774,0.029144,0.497562,0.000000,0.000000
40,128,75,-->,0.004002,1.000000,0.007033,0.025546,0.651377,0.000000,0.000000
40,128,100,-->,0.004808,0.979088,0.010244,0.046446,0.869110,0.000000,0.000000
40,128,128,-->,0.013907,0.758289,0.238066,0.209096,1.000000,0.000000,0.000000
60,-127,-127,-->,1.000000,0.000000,0.000000,0.000000,0.000000,0.111998,0.000000
60,-127,-100,-->,1.000000,0.000000,0.000000,0.000000,0.000000,0.165993,0.000000
60,-127,-75,-->,0.991614,0.000000,0.000000,0.000000,0.000000,0.223692,0.000000
60,-127,-50,-->,0.959482,0.000000,0.000000,0.000000,0.000000,0.324429,0.000000
60,-127,-25,-->,0.809778,0.000000,0.030605,0.000000,0.000000,0.657894,0.000000
60,-127,0,-->,0.432123,0.000000,0.120754,0.000000,0.000000,0.934393,0.000000
60,-127,25,-->,0.212252,0.000000,0.365856,0.000000,0.000000,0.999116,0.000000
60,-127,50,-->,0.148182,0.000000,0.708040,0.000000,0.000000,0.999304,0.000000
60,-127,75,-->,0.056472,0.000000,0.887825,0.000393,0.000000,0.982126,0.000000
60,-127,100,-->,0.003142,0.000324,0.965672,0.002959,0.000000,0.947531,0.000000
60,-127,128,-->,0.000000,0.000528,0.984355,0.005826,0.000000,0.866095,0.000000
60,-100,-127,-->,1.000000,0.000742,0.000000,0.001072,0.000000,0.051871,0.000000
60,-100,-100,-->,1.000000,0.000000,0.000000,0.000000,0.000000,0.108892,0.000000
60,-100,-75,-->,1.000000,0.000000,0.000000,0.000000,0.000000,0.174134,0.000000
60,-100,-50,-->,0.965586,0.000000,0.000000,0.000000,0.000000,0.294925,0.000000
60,-100,-25,-->,0.805050,0.000000,0.032672,0.000000,0.000000,0.648957,0.000000
60,-100,0,-->,0.397623,0.000000,0.127986,0.000000,0.000000,0.953533,0.000000
60,-100,25,-->,0.214889,0.000000,0.441949,0.000000,0.000000,1.000000,0.000000
60,-100,50,-->,0.123781,0.000000,0.792264,0.000000,0.000000,0.998156,0.000000
60,-100,75,-->,0.024545,0.000649,0.933421,0.007369,0.000000,0.959834,0.000000
60,-100,100,-->,0.000000,0.000696,0.984744,0.006685,0.000000,0.870581,0.000000
60,-100,128,-->,0.011133,0.004047,0.993950,0.025909,0.000000,0.759379,0.000000
60,-75,-127,-->,1.000000,0.002898,0.000362,0.003851,0.000000,0.010977,0.016896
60,-75,-100,-->,1.000000,0.001325,0.000000,0.002167,0.000000,0.040914,0.000000
60,-75,-75,-->,1.000000,0.000000,0.000000,0.000000,0.000000,0.105296,0.000000
60,-75,-50,-->,0.975849,0.000000,0.000000,0.000000,0.000000,0.239616,0.000000
60,-75,-25,-->,0.812707,0.000000,0.031711,0.000000,0.000000,0.617237,0.000000
60,-75,0,-->,0.346646,0.000000,0.119973,0.000000,0.000000,0.949743,0.000000
60,-75,25,-->,0.177096,0.000995,0.474046,0.005613,0.000000,0.979883,0.000000
60,-75,50,-->,0.098657,0.001495,0.857359,0.018317,0.000000,0.990777,0.000000
60,-75,75,-->,0.008936,0.003548,0.976851,0.028887,0.000000,0.890750,0.000000
60,-75,100,-->,0.014731,0.005382,0.995871,0.033517,0.000000,0.743752,0.000000
60,-75,128,-->,0.033414,0.012399,1.000000,0.069234,0.000000,0.633211,0.000000
60,-50,-127,-->,0.987630,0.000808,0.000000,0.000000,0.000000,0.000000,0.063694
60,-50,-100,-->,1.000000,0.002926,0.000352,0.002937,0.000000,0.000000,0.034636
60,-50,-75,-->,1.000000,0.002338,0.000000,0.003373,0.000000,0.022108,0.008069
60,-50,-50,-->,0.997159,0.000000,0.000000,0.000000,0.000000,0.132974,0.000000
60,-50,-25,-->,0.764789,0.000000,0.043855,0.000000,0.000000,0.460059,0.000000
60,-50,0,-->,0.449827,0.016712,0.212480,0.076135,0.000000,0.627817,0.000000
60,-50,25,-->,0.198268,0.027211,0.506075,0.136848,0.000000,0.708661,0.000000
60,-50,50,-->,0.094362,0.024615,0.869743,0.150407,0.000000,0.752313,0.000000
60,-50,75,-->,0.051886,0.018943,1.000000,0.115896,0.000000,0.690022,0.000000
60,-50,100,-->,0.048119,0.018184,1.000000,0.096520,0.000000,0.568013,0.000000
60,-50,128,-->,0.064887,0.025579,1.000000,0.125878,0.000000,0.464036,0.000000
60,-25,-127,-->,0.946874,0.000000,0.000000,0.000000,0.000000,0.000000,0.131924
60,-25,-100,-->,0.959084,0.000000,0.000000,0.000000,0.000000,0.000000,0.114406
60,-25,-75,-->,0.973147,0.000000,0.000000,0.000000,0.000000,0.000000,0.089496
60,-25,-50,-->,0.889515,0.001900,0.000000,0.000000,0.000000,0.000000,0.092327
60,-25,-25,-->,0.700421,0.057270,0.090362,0.165231,0.000000,0.035918,0.000000
60,-25,0,-->,0.481364,0.065938,0.282584,0.228099,0.000000,0.205441,0.000000
60,-25,25,-->,0.274334,0.070735,0.558610,0.271318,0.000000,0.306221,0.000000
60,-25,50,-->,0.164190,0.063134,0.864015,0.284135,0.000000,0.359372,0.000000
60,-25,75,-->,0.117236,0.053242,1.000000,0.254466,0.000000,0.347057,0.000000
60,-25,100,-->,0.095869,0.044282,1.000000,0.199507,0.000000,0.294775,0.000000
60,-25,128,-->,0.099814,0.049953,1.000000,0.215020,0.000000,0.228945,0.000000
60,0,-127,-->,0.800474,0.025264,0.000000,0.000000,0.000000,0.000000,0.247200
60,0,-100,-->,0.798700,0.025644,0.000000,0.000000,0.000000,0.000000,0.248339
60,0,-75,-->,0.793628,0.026725,0.000000,0.000000,0.000000,0.000000,0.250483
60,0,-50,-->,0.616454,0.092406,0.000000,0.000000,0.000000,0.000000,0.253849
60,0,-25,-->,0.464828,0.195646,0.024851,0.072653,0.000000,0.000000,0.188008
60,0,0,-->,0.189381,0.157703,0.135003,0.433019,0.000000,0.000000,0.000000
60,0,25,-->,0.117523,0.162015,0.514595,0.432351,0.000000,0.000000,0.000000
60,0,50,-->,0.105609,0.153229,0.837499,0.408599,0.016568,0.000000,0.000000
60,0,75,-->,0.094868,0.122646,1.000000,0.379748,0.023758,0.000000,0.000000
60,0,100,-->,0.084274,0.101515,1.000000,0.313412,0.017546,0.000000,0.000000
60,0,128,-->,0.083439,0.097532,1.000000,0.300737,0.017792,0.000000,0.000000
60,25,-127,-->,0.642960,0.091969,0.000000,0.000000,0.000000,0.000000,0.323687
60,25,-100,-->,0.606994,0.111350,0.000000,0.000000,0.000000,0.000000,0.341737
60,25,-75,-->,0.545248,0.135393,0.000000,0.000000,0.000000,0.000000,0.370185
60,25,-50,-->,0.335091,0.207408,0.000000,0.000000,0.000000,0.000000,0.376642
60,25,-25,-->,0.196588,0.390716,0.000000,0.000000,0.000000,0.000000,0.261651
60,25,0,-->,0.072467,0.502066,0.117437,0.267010,0.000000,0.000000,0.000000
60,25,25,-->,0.072162,0.379757,0.370673,0.252428,0.205461,0.000000,0.000000
60,25,50,-->,0.061889,0.247112,0.673130,0.261370,0.335077,0.000000,0.000000
60,25,75,-->,0.053376,0.140671,1.000000,0.275089,0.410174,0.000000,0.000000
60,25,100,-->,0.051772,0.129755,1.000000,0.245692,0.299798,0.000000,0.000000
60,25,128,-->,0.057747,0.128155,1.000000,0.258752,0.219329,0.000000,0.000000
60,50,-127,-->,0.501219,0.150561,0.000000,0.000000,0.000000,0.000000,0.392283
60,50,-100,-->,0.418385,0.173360,0.000000,0.000000,0.000000,0.000000,0.429903
60,50,-75,-->,0.291566,0.227060,0.000000,0.000000,0.000000,0.000000,0.476354
60,50,-50,-->,0.146196,0.479528,0.000000,0.000000,0.000000,0.000000,0.323324
60,50,-25,-->,0.072073,0.637948,0.000000,0.000000,0.000000,0.000000,0.161685
60,50,0,-->,0.022443,0.707148,0.067093,0.084029,0.019569,0.000000,0.000000
60,50,25,-->,0.018052,0.584700,0.177830,0.066819,0.329475,0.000000,0.000000
60,50,50,-->,0.021000,0.368020,0.260013,0.097650,0.635853,0.000000,0.000000
60,50,75,-->,0.021828,0.159541,0.582870,0.148440,0.873263,0.000000,0.000000
60,50,100,-->,0.017822,0.076769,0.974671,0.137487,0.824838,0.000000,0.000000
60,50,128,-->,0.030328,0.080972,1.000000,0.177311,0.584939,0.000000,0.000000
60,75,-127,-->,0.344000,0.199125,0.000000,0.000000,0.000000,0.000000,0.461661
60,75,-100,-->,0.235835,0.275013,0.000000,0.000000,0.000000,0.000000,0.483384
60,75,-75,-->,0.148065,0.480494,0.000000,0.000000,0.000000,0.000000,0.427487
60,75,-50,-->,0.072017,0.671544,0.000000,0.000000,0.000000,0.000000,0.280145
60,75,-25,-->,0.014408,0.800438,0.000000,0.000000,0.000000,0.000000,0.078246
60,75,0,-->,0.000000,0.899639,0.004024,0.000000,0.040015,0.000000,0.000000
60,75,25,-->,0.000000,0.833611,0.029856,0.000000,0.384036,0.000000,0.000000
60,75,50,-->,0.000000,0.725062,0.059702,0.000000,0.681273,0.000000,0.000000
60,75,75,-->,0.000000,0.575323,0.104550,0.000000,0.945660,0.000000,0.000000
60,75,100,-->,0.000000,0.380418,0.521689,0.000000,1.000000,0.000000,0.000000
60,75,128,-->,0.007297,0.150256,0.850476,0.072675,0.952162,0.000000,0.000000
60,100,-127,-->,0.214821,0.305135,0.000000,0.000000,0.000000,0.000000,0.478939
60,100,-100,-->,0.145756,0.488654,0.000000,0.000000,0.000000,0.000000,0.426153
60,100,-75,-->,0.076747,0.675899,0.000000,0.000000,0.000000,0.000000,0.362052
60,100,-50,-->,0.018450,0.826817,0.000000,0.000000,0.000000,0.000000,0.175509
60,100,-25,-->,0.000000,0.930789,0.000000,0.000000,0.000000,0.000000,0.017906
60,100,0,-->,0.000000,0.986548,0.000000,0.000000,0.125884,0.000000,0.000000
60,100,25,-->,0.000000,0.962609,0.000000,0.000000,0.372049,0.000000,0.000000
60,100,50,-->,0.000000,0.942332,0.006101,0.000000,0.590520,0.000000,0.000000
60,100,75,-->,0.000000,0.814249,0.023738,0.000000,0.796391,0.000000,0.000000
60,100,100,-->,0.000000,0.687772,0.152393,0.000000,0.976502,0.000000,0.000000
60,100,128,-->,0.000000,0.409934,0.482128,0.000000,1.000000,0.000000,0.000000
60,128,-127,-->,0.141726,0.500778,0.000000,0.000000,0.000000,0.000000,0.422869
60,128,-100,-->,0.085361,0.656335,0.000000,0.000000,0.000000,0.000000,0.374315
60,128,-75,-->,0.019693,0.837116,0.000000,0.000000,0.000000,0.000000,0.207788
60,128,-50,-->,0.000000,0.947441,0.000000,0.000000,0.000000,0.000000,0.031777
60,128,-25,-->,0.000000,1.000000,0.000000,0.000000,0.065365,0.000000,0.000000
60,128,0,-->,0.000000,0.994494,0.000000,0.000000,0.231275,0.000000,0.000000
60,128,25,-->,0.000000,0.993103,0.000000,0.000000,0.383728,0.000000,0.000000
60,128,50,-->,0.000000,0.987149,0.000000,0.000000,0.521770,0.000000,0.000000
60,128,75,-->,0.000000,0.953601,0.000000,0.000000,0.663348,0.000000,0.000000
60,128,100,-->,0.000000,0.866678,0.012586,0.000000,0.812511,0.000000,0.000000
60,128,128,-->,0.000000,0.696917,0.149415,0.000000,0.985325,0.000000,0.000000
80,-127,-127,-->,0.749546,0.000000,0.022315,0.000000,0.000000,0.075891,0.000000
80,-127,-100,-->,0.756834,0.000000,0.031889,0.000000,0.000000,0.134612,0.000000
80,-127,-75,-->,0.758202,0.000000,0.038288,0.000000,0.000000,0.211289,0.000000
80,-127,-50,-->,0.760943,0.000000,0.042287,0.000000,0.000000,0.292340,0.000000
80,-127,-25,-->,0.696004,0.000000,0.074338,0.000000,0.000000,0.417498,0.000000
80,-127,0,-->,0.406122,0.000000,0.142011,0.000000,0.000000,0.705346,0.000000
80,-127,25,-->,0.144744,0.000000,0.257150,0.000000,0.000000,0.855829,0.000000
80,-127,50,-->,0.085858,0.000000,0.559260,0.000000,0.000000,0.894039,0.000000
80,-127,75,-->,0.033134,0.000000,0.805464,0.000000,0.000000,0.903020,0.000000
80,-127,100,-->,0.005305,0.000000,0.928826,0.000000,0.000000,0.866844,0.000000
80,-127,128,-->,0.000397,0.000000,0.966729,0.000000,0.000000,0.780669,0.000000
80,-100,-127,-->,0.731235,0.000000,0.011074,0.000000,0.000000,0.028704,0.000000
80,-100,-100,-->,0.738651,0.000000,0.024186,0.000000,0.000000,0.072054,0.000000
80,-100,-75,-->,0.742960,0.000000,0.036302,0.000000,0.000000,0.139528,0.000000
80,-100,-50,-->,0.740209,0.000000,0.046274,0.000000,0.000000,0.239780,0.000000
80,-100,-25,-->,0.669791,0.000000,0.083080,0.000000,0.000000,0.379421,0.000000
80,-100,0,-->,0.354637,0.000000,0.161627,0.000000,0.000000,0.689058,0.000000
80,-100,25,-->,0.137616,0.000000,0.315656,0.000000,0.000000,0.800491,0.000000
80,-100,50,-->,0.075306,0.000000,0.636805,0.000000,0.000000,0.826008,0.000000
80,-100,75,-->,0.024249,0.000000,0.850698,0.000000,0.000000,0.829977,0.000000
80,-100,100,-->,0.003087,0.000000,0.954513,0.000000,0.000000,0.775166,0.000000
80,-100,128,-->,0.000000,0.000000,0.981546,0.000000,0.000000,0.685836,0.000000
80,-75,-127,-->,0.694086,0.000000,0.000000,0.000000,0.000000,0.000000,0.000000
80,-75,-100,-->,0.714072,0.000000,0.012341,0.000000,0.000000,0.020407,0.000000
80,-75,-75,-->,0.723063,0.000000,0.027586,0.000000,0.000000,0.066017,0.000000
80,-75,-50,-->,0.723049,0.000000,0.044512,0.000000,0.000000,0.155117,0.000000
80,-75,-25,-->,0.646371,0.000000,0.088196,0.000000,0.000000,0.302810,0.000000
80,-75,0,-->,0.320398,0.000000,0.183135,0.000000,0.000000,0.641973,0.000000
80,-75,25,-->,0.147046,0.000000,0.380378,0.000000,0.000000,0.716393,0.000000
80,-75,50,-->,0.073988,0.000000,0.690125,0.000000,0.000000,0.720511,0.000000
80,-75,75,-->,0.014605,0.000000,0.900045,0.000000,0.000000,0.725940,0.000000
80,-75,100,-->,0.000400,0.000000,0.971910,0.000000,0.000000,0.658833,0.000000
80,-75,128,-->,0.000856,0.000000,0.993617,0.000000,0.000000,0.575450,0.000000
80,-50,-127,-->,0.641713,0.017380,0.000000,0.000000,0.000000,0.000000,0.004060
80,-50,-100,-->,0.657142,0.004800,0.000000,0.000000,0.000000,0.000000,0.000000
80,-50,-75,-->,0.677210,0.000000,0.007621,0.000000,0.000000,0.006356,0.000000
80,-50,-50,-->,0.694205,0.000000,0.033603,0.000000,0.000000,0.054323,0.000000
80,-50,-25,-->,0.625740,0.000000,0.085319,0.000000,0.000000,0.181324,0.000000
80,-50,0,-->,0.362660,0.000000,0.208392,0.000000,0.000000,0.447800,0.000000
80,-50,25,-->,0.178413,0.000000,0.406504,0.000000,0.000000,0.528482,0.000000
80,-50,50,-->,0.081261,0.000000,0.695476,0.000000,0.000000,0.566489,0.000000
80,-50,75,-->,0.007927,0.000000,0.946438,0.000000,0.000000,0.577522,0.000000
80,-50,100,-->,0.000000,0.000000,0.999233,0.000000,0.000000,0.507937,0.000000
80,-50,128,-->,0.000000,0.000000,1.000000,0.000000,0.000000,0.429107,0.000000
80,-25,-127,-->,0.582996,0.050508,0.000000,0.000000,0.000000,0.000000,0.019668
80,-25,-100,-->,0.588513,0.041985,0.000000,0.000000,0.000000,0.000000,0.010695
80,-25,-75,-->,0.589492,0.030220,0.000000,0.000000,0.000000,0.000000,0.005175
80,-25,-50,-->,0.594875,0.011291,0.000000,0.000000,0.000000,0.000000,0.000000
80,-25,-25,-->,0.551969,0.000000,0.036317,0.000000,0.000000,0.017465,0.000000
80,-25,0,-->,0.354566,0.001937,0.199272,0.003762,0.000000,0.153430,0.000000
80,-25,25,-->,0.194597,0.010110,0.420920,0.028346,0.000000,0.225214,0.000000
80,-25,50,-->,0.101841,0.007839,0.657969,0.026278,0.000000,0.270153,0.000000
80,-25,75,-->,0.027461,0.007353,0.914361,0.026403,0.000000,0.319482,0.000000
80,-25,100,-->,0.016467,0.007370,1.000000,0.025843,0.000000,0.272170,0.000000
80,-25,128,-->,0.013859,0.006044,1.000000,0.019485,0.000000,0.220326,0.000000
80,0,-127,-->,0.481640,0.110824,0.000000,0.000000,0.000000,0.000000,0.075358
80,0,-100,-->,0.470211,0.112990,0.000000,0.000000,0.000000,0.000000,0.070706
80,0,-75,-->,0.454152,0.114631,0.000000,0.000000,0.000000,0.000000,0.064464
80,0,-50,-->,0.428793,0.116774,0.000000,0.000000,0.000000,0.000000,0.051665
80,0,-25,-->,0.337038,0.143640,0.000000,0.000000,0.000000,0.000000,0.029029
80,0,0,-->,0.115855,0.094094,0.086695,0.177533,0.000000,0.000000,0.000000
80,0,25,-->,0.050522,0.106518,0.386185,0.180224,0.000000,0.000000,0.000000
80,0,50,-->,0.039580,0.095979,0.652080,0.165023,0.003470,0.000000,0.000000
80,0,75,-->,0.041991,0.071587,0.897271,0.157707,0.026807,0.000000,0.000000
80,0,100,-->,0.032612,0.049329,1.000000,0.095400,0.039520,0.000000,0.000000
80,0,128,-->,0.022089,0.031461,1.000000,0.053228,0.035460,0.000000,0.000000
80,25,-127,-->,0.384293,0.151907,0.000000,0.000000,0.000000,0.000000,0.126375
80,25,-100,-->,0.356028,0.161688,0.000000,0.000000,0.000000,0.000000,0.129888
80,25,-75,-->,0.314481,0.182743,0.000000,0.000000,0.000000,0.000000,0.128127
80,25,-50,-->,0.236749,0.235655,0.000000,0.000000,0.000000,0.000000,0.110805
80,25,-25,-->,0.101645,0.358002,0.000000,0.000000,0.000000,0.000000,0.019555
80,25,0,-->,0.000000,0.371632,0.053414,0.016276,0.000000,0.000000,0.000000
80,25,25,-->,0.005275,0.265807,0.261682,0.014614,0.147684,0.000000,0.000000
80,25,50,-->,0.003938,0.172378,0.502181,0.012503,0.250619,0.000000,0.000000
80,25,75,-->,0.003320,0.072348,0.742411,0.013143,0.344321,0.000000,0.000000
80,25,100,-->,0.003083,0.006072,1.000000,0.012508,0.381680,0.000000,0.000000
80,25,128,-->,0.003403,0.006620,1.000000,0.011757,0.285529,0.000000,0.000000
80,50,-127,-->,0.298350,0.201537,0.000000,0.000000,0.000000,0.000000,0.148963
80,50,-100,-->,0.248445,0.238280,0.000000,0.000000,0.000000,0.000000,0.142876
80,50,-75,-->,0.186600,0.315330,0.000000,0.000000,0.000000,0.000000,0.109011
80,50,-50,-->,0.112162,0.426626,0.000000,0.000000,0.000000,0.000000,0.052032
80,50,-25,-->,0.006490,0.524109,0.000000,0.000000,0.000000,0.000000,0.000000
80,50,0,-->,0.000000,0.570737,0.069361,0.000000,0.034554,0.000000,0.000000
80,50,25,-->,0.000000,0.453976,0.180479,0.000000,0.246401,0.000000,0.000000
80,50,50,-->,0.000000,0.257692,0.255897,0.000000,0.500855,0.000000,0.000000
80,50,75,-->,0.000000,0.137318,0.514763,0.000000,0.644426,0.000000,0.000000
80,50,100,-->,0.000000,0.022083,0.867074,0.000000,0.718350,0.000000,0.000000
80,50,128,-->,0.000000,0.000000,1.000000,0.000000,0.615194,0.000000,0.000000
80,75,-127,-->,0.218302,0.287078,0.000000,0.000000,0.000000,0.000000,0.137708
80,75,-100,-->,0.165399,0.360984,0.000000,0.000000,0.000000,0.000000,0.107023
80,75,-75,-->,0.116510,0.445053,0.000000,0.000000,0.000000,0.000000,0.071057
80,75,-50,-->,0.057110,0.554060,0.000000,0.000000,0.000000,0.000000,0.029645
80,75,-25,-->,0.000000,0.664797,0.001002,0.000000,0.008482,0.000000,0.000000
80,75,0,-->,0.000000,0.686141,0.053713,0.000000,0.106630,0.000000,0.000000
80,75,25,-->,0.000000,0.614988,0.110127,0.000000,0.297316,0.000000,0.000000
80,75,50,-->,0.000000,0.467420,0.167574,0.000000,0.525974,0.000000,0.000000
80,75,75,-->,0.000000,0.268888,0.195081,0.000000,0.745476,0.000000,0.000000
80,75,100,-->,0.000000,0.134446,0.357380,0.000000,0.887710,0.000000,0.000000
80,75,128,-->,0.000000,0.031792,0.809168,0.000000,0.915080,0.000000,0.000000
80,100,-127,-->,0.158406,0.381310,0.000000,0.000000,0.000000,0.000000,0.109717
80,100,-100,-->,0.117543,0.457371,0.000000,0.000000,0.000000,0.000000,0.080821
80,100,-75,-->,0.075835,0.541892,0.000000,0.000000,0.000000,0.000000,0.049259
80,100,-50,-->,0.014378,0.665368,0.000000,0.000000,0.000000,0.000000,0.013284
80,100,-25,-->,0.000000,0.792190,0.011364,0.000000,0.039181,0.000000,0.000000
80,100,0,-->,0.000000,0.789910,0.029562,0.000000,0.164707,0.000000,0.000000
80,100,25,-->,0.000000,0.729645,0.062218,0.000000,0.345173,0.000000,0.000000
80,100,50,-->,0.000000,0.651654,0.099587,0.000000,0.518415,0.000000,0.000000
80,100,75,-->,0.000000,0.527059,0.124169,0.000000,0.677106,0.000000,0.000000
80,100,100,-->,0.000000,0.350489,0.095489,0.000000,0.841468,0.000000,0.000000
80,100,128,-->,0.000000,0.206271,0.226458,0.000000,0.959848,0.000000,0.000000
80,128,-127,-->,0.115746,0.470019,0.000000,0.000000,0.000000,0.000000,0.086529
80,128,-100,-->,0.082973,0.540952,0.000000,0.000000,0.000000,0.000000,0.062029
80,128,-75,-->,0.037586,0.633695,0.000000,0.000000,0.000000,0.000000,0.035293
80,128,-50,-->,0.000000,0.758805,0.000000,0.000000,0.000000,0.000000,0.000000
80,128,-25,-->,0.000000,0.852710,0.010415,0.000000,0.063375,0.000000,0.000000
80,128,0,-->,0.000000,0.825508,0.023392,0.000000,0.201229,0.000000,0.000000
80,128,25,-->,0.000000,0.781191,0.043330,0.000000,0.342731,0.000000,0.000000
80,128,50,-->,0.000000,0.726674,0.069233,0.000000,0.475898,0.000000,0.000000
80,128,75,-->,0.000000,0.649799,0.094343,0.000000,0.606444,0.000000,0.000000
80,128,100,-->,0.000000,0.538465,0.109152,0.000000,0.724497,0.000000,0.000000
80,128,128,-->,0.000000,0.381053,0.065798,0.000000,0.877574,0.000000,0.000000
100,-127,-127,-->,0.637014,0.000000,0.049595,0.000000,0.000000,0.064106,0.000000
100,-127,-100,-->,0.630027,0.000000,0.065647,0.000000,0.000000,0.103265,0.000000
100,-127,-75,-->,0.619815,0.000000,0.081957,0.000000,0.000000,0.146401,0.000000
100,-127,-50,-->,0.594161,0.000000,0.102199,0.000000,0.000000,0.205581,0.000000
100,-127,-25,-->,0.553545,0.000000,0.129921,0.000000,0.000000,0.298814,0.000000
100,-127,0,-->,0.395178,0.000000,0.184703,0.000000,0.000000,0.488644,0.000000
100,-127,25,-->,0.202688,0.000000,0.258957,0.000000,0.000000,0.631822,0.000000
100,-127,50,-->,0.140404,0.000000,0.465730,0.000000,0.000000,0.666340,0.000000
100,-127,75,-->,0.091413,0.000000,0.643031,0.000000,0.000000,0.683383,0.000000
100,-127,100,-->,0.048715,0.000000,0.782613,0.000000,0.000000,0.686043,0.000000
100,-127,128,-->,0.017455,0.000000,0.887535,0.000000,0.000000,0.673396,0.000000
100,-100,-127,-->,0.612160,0.000000,0.030482,0.000000,0.000000,0.021936,0.000000
100,-100,-100,-->,0.613698,0.000000,0.052006,0.000000,0.000000,0.049905,0.000000
100,-100,-75,-->,0.602004,0.000000,0.070924,0.000000,0.000000,0.086963,0.000000
100,-100,-50,-->,0.576733,0.000000,0.097411,0.000000,0.000000,0.140938,0.000000
100,-100,-25,-->,0.528191,0.000000,0.133803,0.000000,0.000000,0.236843,0.000000
100,-100,0,-->,0.402620,0.000000,0.197697,0.000000,0.000000,0.384994,0.000000
100,-100,25,-->,0.206062,0.000000,0.300143,0.000000,0.000000,0.541838,0.000000
100,-100,50,-->,0.139673,0.000000,0.523826,0.000000,0.000000,0.572533,0.000000
100,-100,75,-->,0.080334,0.000000,0.697789,0.000000,0.000000,0.592226,0.000000
100,-100,100,-->,0.035755,0.000000,0.825710,0.000000,0.000000,0.606377,0.000000
100,-100,128,-->,0.014323,0.000000,0.913522,0.000000,0.000000,0.569298,0.000000
100,-75,-127,-->,0.570579,0.000000,0.009083,0.000000,0.000000,0.000000,0.000000
100,-75,-100,-->,0.579650,0.000000,0.025332,0.000000,0.000000,0.000983,0.000000
100,-75,-75,-->,0.578376,0.000000,0.049837,0.000000,0.000000,0.027695,0.000000
100,-75,-50,-->,0.557287,0.000000,0.082131,0.000000,0.000000,0.074036,0.000000
100,-75,-25,-->,0.507932,0.000000,0.129294,0.000000,0.000000,0.158772,0.000000
100,-75,0,-->,0.390152,0.000000,0.202855,0.000000,0.000000,0.286752,0.000000
100,-75,25,-->,0.202498,0.000000,0.349923,0.000000,0.000000,0.438447,0.000000
100,-75,50,-->,0.129999,0.000000,0.575241,0.000000,0.000000,0.441012,0.000000
100,-75,75,-->,0.066520,0.000000,0.732380,0.000000,0.000000,0.473087,0.000000
100,-75,100,-->,0.023886,0.000000,0.861555,0.000000,0.000000,0.488552,0.000000
100,-75,128,-->,0.006940,0.000000,0.939819,0.000000,0.000000,0.463494,0.000000
100,-50,-127,-->,0.515144,0.007633,0.000000,0.000000,0.000000,0.000000,0.000000
100,-50,-100,-->,0.512746,0.000000,0.002862,0.000000,0.000000,0.000000,0.000000
100,-50,-75,-->,0.505203,0.000000,0.018411,0.000000,0.000000,0.000000,0.000000
100,-50,-50,-->,0.498493,0.000000,0.053887,0.000000,0.000000,0.011835,0.000000
100,-50,-25,-->,0.468379,0.000000,0.111069,0.000000,0.000000,0.070792,0.000000
100,-50,0,-->,0.349268,0.000000,0.201869,0.000000,0.000000,0.178976,0.000000
100,-50,25,-->,0.187442,0.000000,0.400952,0.000000,0.000000,0.277922,0.000000
100,-50,50,-->,0.105253,0.000000,0.611425,0.000000,0.000000,0.270019,0.000000
100,-50,75,-->,0.045410,0.000000,0.769750,0.000000,0.000000,0.294249,0.000000
100,-50,100,-->,0.013261,0.000000,0.900238,0.000000,0.000000,0.328949,0.000000
100,-50,128,-->,0.003770,0.000000,0.960506,0.000000,0.000000,0.305992,0.000000
100,-25,-127,-->,0.453781,0.052860,0.000000,0.000000,0.000000,0.000000,0.006444
100,-25,-100,-->,0.438451,0.038553,0.000000,0.000000,0.000000,0.000000,0.002096
100,-25,-75,-->,0.412077,0.020249,0.000000,0.000000,0.000000,0.000000,0.000000
100,-25,-50,-->,0.382335,0.005364,0.001817,0.000000,0.000000,0.000000,0.000000
100,-25,-25,-->,0.348590,0.000000,0.035844,0.000000,0.000000,0.000000,0.000000
100,-25,0,-->,0.265770,0.000000,0.167434,0.000000,0.000000,0.036396,0.000000
100,-25,25,-->,0.152669,0.000000,0.376530,0.000000,0.000000,0.086695,0.000000
100,-25,50,-->,0.080725,0.000000,0.596308,0.000000,0.000000,0.106013,0.000000
100,-25,75,-->,0.025669,0.000000,0.783991,0.000000,0.000000,0.105681,0.000000
100,-25,100,-->,0.004129,0.000000,0.927659,0.000000,0.000000,0.111484,0.000000
100,-25,128,-->,0.000289,0.000000,0.995463,0.000000,0.000000,0.102930,0.000000
100,0,-127,-->,0.389660,0.110515,0.000000,0.000000,0.000000,0.000000,0.023732
100,0,-100,-->,0.364485,0.108885,0.000000,0.000000,0.000000,0.000000,0.014365
100,0,-75,-->,0.328709,0.105988,0.000000,0.000000,0.000000,0.000000,0.004971
100,0,-50,-->,0.276342,0.094449,0.000000,0.000000,0.000000,0.000000,0.000000
100,0,-25,-->,0.182635,0.067925,0.000000,0.000000,0.000000,0.000000,0.000000
100,0,0,-->,0.000000,0.000018,0.000012,0.000000,0.000000,0.000000,0.000000
100,0,25,-->,0.000000,0.020397,0.268161,0.000000,0.000000,0.000000,0.000000
100,0,50,-->,0.000000,0.036433,0.528100,0.000000,0.000000,0.000000,0.000000
100,0,75,-->,0.000000,0.021601,0.750893,0.000000,0.019832,0.000000,0.000000
100,0,100,-->,0.000000,0.000000,0.917149,0.000000,0.021337,0.000000,0.000000
100,0,128,-->,0.000000,0.000000,1.000000,0.000000,0.023779,0.000000,0.000000
100,25,-127,-->,0.317047,0.156674,0.000000,0.000000,0.000000,0.000000,0.056263
100,25,-100,-->,0.279776,0.164993,0.000000,0.000000,0.000000,0.000000,0.049184
100,25,-75,-->,0.227339,0.179079,0.000000,0.000000,0.000000,0.000000,0.037041
100,25,-50,-->,0.148010,0.198490,0.000000,0.000000,0.000000,0.000000,0.011714
100,25,-25,-->,0.011203,0.220379,0.000000,0.000000,0.000000,0.000000,0.000000
100,25,0,-->,0.000000,0.239822,0.040433,0.000000,0.000000,0.000000,0.000000
100,25,25,-->,0.000000,0.219360,0.255523,0.000000,0.073629,0.000000,0.000000
100,25,50,-->,0.000000,0.160507,0.451758,0.000000,0.154737,0.000000,0.000000
100,25,75,-->,0.000000,0.097072,0.633085,0.000000,0.216270,0.000000,0.000000
100,25,100,-->,0.000000,0.034449,0.822051,0.000000,0.271472,0.000000,0.000000
100,25,128,-->,0.000000,0.000000,0.977478,0.000000,0.253185,0.000000,0.000000
100,50,-127,-->,0.244598,0.203075,0.000000,0.000000,0.000000,0.000000,0.077716
100,50,-100,-->,0.192326,0.232723,0.000000,0.000000,0.000000,0.000000,0.057225
100,50,-75,-->,0.121490,0.273358,0.000000,0.000000,0.000000,0.000000,0.023141
100,50,-50,-->,0.020617,0.314017,0.000000,0.000000,0.000000,0.000000,0.000000
100,50,-25,-->,0.000000,0.348288,0.002916,0.000000,0.000000,0.000000,0.000000
100,50,0,-->,0.000000,0.398426,0.087945,0.000000,0.020629,0.000000,0.000000
100,50,25,-->,0.000000,0.347089,0.194293,0.000000,0.131100,0.000000,0.000000
100,50,50,-->,0.000000,0.228308,0.328078,0.000000,0.259501,0.000000,0.000000
100,50,75,-->,0.000000,0.163881,0.498782,0.000000,0.334349,0.000000,0.000000
100,50,100,-->,0.000000,0.101237,0.657212,0.000000,0.409876,0.000000,0.000000
100,50,128,-->,0.000000,0.030848,0.853679,0.000000,0.450157,0.000000,0.000000
100,75,-127,-->,0.176808,0.271243,0.000000,0.000000,0.000000,0.000000,0.063140
100,75,-100,-->,0.114712,0.323727,0.000000,0.000000,0.000000,0.000000,0.021568
100,75,-75,-->,0.057893,0.365803,0.000000,0.000000,0.000000,0.000000,0.000000
100,75,-50,-->,0.012838,0.392478,0.000000,0.000000,0.000000,0.000000,0.000000
100,75,-25,-->,0.000000,0.452968,0.025777,0.000000,0.000000,0.000000,0.000000
100,75,0,-->,0.000000,0.490721,0.097186,0.000000,0.050553,0.000000,0.000000
100,75,25,-->,0.000000,0.441369,0.164681,0.000000,0.150234,0.000000,0.000000
100,75,50,-->,0.000000,0.319060,0.238835,0.000000,0.284135,0.000000,0.000000
100,75,75,-->,0.000000,0.213131,0.343378,0.000000,0.415903,0.000000,0.000000
100,75,100,-->,0.000000,0.161181,0.505257,0.000000,0.480578,0.000000,0.000000
100,75,128,-->,0.000000,0.095024,0.679563,0.000000,0.545017,0.000000,0.000000
100,100,-127,-->,0.114930,0.351511,0.000000,0.000000,0.000000,0.000000,0.026819
100,100,-100,-->,0.075685,0.391801,0.000000,0.000000,0.000000,0.000000,0.007051
100,100,-75,-->,0.037166,0.418867,0.000000,0.000000,0.000000,0.000000,0.000000
100,100,-50,-->,0.000000,0.473458,0.000000,0.000000,0.000000,0.000000,0.000000
100,100,-25,-->,0.000000,0.538641,0.047604,0.000000,0.010712,0.000000,0.000000
100,100,0,-->,0.000000,0.555479,0.093881,0.000000,0.078354,0.000000,0.000000
100,100,25,-->,0.000000,0.511606,0.138140,0.000000,0.163569,0.000000,0.000000
100,100,50,-->,0.000000,0.417773,0.198029,0.000000,0.284318,0.000000,0.000000
100,100,75,-->,0.000000,0.297423,0.233370,0.000000,0.430396,0.000000,0.000000
100,100,100,-->,0.000000,0.209357,0.324681,0.000000,0.540567,0.000000,0.000000
100,100,128,-->,0.000000,0.149848,0.497565,0.000000,0.609073,0.000000,0.000000
100,128,-127,-->,0.085228,0.412922,0.000000,0.000000,0.000000,0.000000,0.014901
100,128,-100,-->,0.053883,0.445260,0.000000,0.000000,0.000000,0.000000,0.000000
100,128,-75,-->,0.002772,0.493090,0.000000,0.000000,0.000000,0.000000,0.000000
100,128,-50,-->,0.000000,0.558059,0.012422,0.000000,0.007134,0.000000,0.000000
100,128,-25,-->,0.000000,0.609325,0.056146,0.000000,0.029772,0.000000,0.000000
100,128,0,-->,0.000000,0.604257,0.083715,0.000000,0.102279,0.000000,0.000000
100,128,25,-->,0.000000,0.570601,0.115516,0.000000,0.173914,0.000000,0.000000
100,128,50,-->,0.000000,0.501545,0.162981,0.000000,0.284500,0.000000,0.000000
100,128,75,-->,0.000000,0.404194,0.194530,0.000000,0.403829,0.000000,0.000000
100,128,100,-->,0.000000,0.295515,0.227395,0.000000,0.533195,0.000000,0.000000
100,128,128,-->,0.000000,0.208876,0.306790,0.000000,0.639202,0.000000,0.000000
-1,0,0,-->,0.967093,0.590448,0.431872,1.000000,0.000000,0.000000,0.000000
101,0,0,-->,0.000000,0.000018,0.000012,0.000000,0.000000,0.000000,0.000000
50,-130,0,-->,0.634157,0.000000,0.195253,0.000000,0.000000,1.000000,0.000000
50,130,0,-->,0.000000,1.000000,0.000000,0.000000,0.251391,0.000000,0.000000
50,0,-130,-->,0.959703,0.000000,0.000000,0.000000,0.000000,0.000000,0.268644
50,0,130,-->,0.119193,0.133792,1.000000,0.453712,0.006065,0.000000,0.000000
