0,-127,-127,-->,0.999863,0.175108,0.106322,0.448120,0.000000,0.000122,0.177236
0,-127,-100,-->,0.999907,0.181669,0.112901,0.469673,0.000000,0.000093,0.166946
0,-127,-75,-->,0.999909,0.192112,0.123141,0.504139,0.000000,0.000091,0.153838
0,-127,-50,-->,0.999667,0.253127,0.143741,0.585733,0.000000,0.000023,0.302167
0,-127,-25,-->,0.999653,0.349868,0.182121,0.779584,0.000000,0.000000,0.447204
0,-127,0,-->,0.966977,0.589827,0.432965,0.999825,0.000000,0.002348,0.000191
0,-127,25,-->,0.966977,0.589827,0.432965,0.999825,0.000000,0.002348,0.000191
0,-127,50,-->,0.966977,0.589827,0.432965,0.999825,0.000000,0.002348,0.000191
0,-127,75,-->,0.966977,0.589827,0.432965,0.999825,0.000000,0.002348,0.000191
0,-127,100,-->,0.966977,0.589827,0.432965,0.999825,0.000000,0.002348,0.000191
0,-127,128,-->,0.966977,0.589827,0.432965,0.999825,0.000000,0.002348,0.000191
0,-100,-127,-->,0.999863,0.175108,0.106322,0.448120,0.000000,0.000122,0.177236
0,-100,-100,-->,0.999907,0.181669,0.112901,0.469673,0.000000,0.000093,0.166946
0,-100,-75,-->,0.999909,0.192112,0.123141,0.504139,0.000000,0.000091,0.153838
0,-100,-50,-->,0.999667,0.253127,0.143741,0.585733,0.000000,0.000023,0.302167
0,-100,-25,-->,0.999653,0.349868,0.182121,0.779584,0.000000,0.000000,0.447204
0,-100,0,-->,0.966977,0.589827,0.432965,0.999825,0.000000,0.002348,0.000191
0,-100,25,-->,0.966977,0.589827,0.432965,0.999825,0.000000,0.002348,0.000191
0,-100,50,-->,0.966977,0.589827,0.432965,0.999825,0.000000,0.002348,0.000191
0,-100,75,-->,0.966977,0.589827,0.432965,0.999825,0.000000,0.002348,0.000191
0,-100,100,-->,0.966977,0.589827,0.432965,0.999825,0.000000,0.002348,0.000191
0,-100,128,-->,0.966977,0.589827,0.432965,0.999825,0.000000,0.002348,0.000191
0,-75,-127,-->,0.999863,0.175108,0.106322,0.448120,0.000000,0.000122,0.177236
0,-75,-100,-->,0.999907,0.181669,0.112901,0.469673,0.000000,0.000093,0.166946
0,-75,-75,-->,0.999909,0.192112,0.123141,0.504139,0.000000,0.000091,0.153838
0,-75,-50,-->,0.999667,0.253127,0.143741,0.585733,0.000000,0.000023,0.302167
0,-75,-25,-->,0.999653,0.349868,0.182121,0.779584,0.000000,0.000000,0.447204
0,-75,0,-->,0.966977,0.589827,0.432965,0.999825,0.000000,0.002348,0.000191
0,-75,25,-->,0.966977,0.589827,0.432965,0.999825,0.000000,0.002348,0.000191
0,-75,50,-->,0.966977,0.589827,0.432965,0.999825,0.000000,0.002348,0.000191
0,-75,75,-->,0.966977,0.589827,0.432965,0.999825,0.000000,0.002348,0.000191
0,-75,100,-->,0.966977,0.589827,0.432965,0.999825,0.000000,0.002348,0.000191
0,-75,128,-->,0.966977,0.589827,0.432965,0.999825,0.000000,0.002348,0.000191
0,-50,-127,-->,0.999863,0.175108,0.106322,0.448120,0.000000,0.000122,0.177236
0,-50,-100,-->,0.999907,0.181669,0.112901,0.469673,0.000000,0.000093,0.166946
0,-50,-75,-->,0.999909,0.192112,0.123141,0.504139,0.000000,0.000091,0.153838
0,-50,-50,-->,0.999667,0.253127,0.143741,0.585733,0.000000,0.000023,0.302167
0,-50,-25,-->,0.999653,0.349868,0.182121,0.779584,0.000000,0.000000,0.447204
0,-50,0,-->,0.966977,0.589827,0.432965,0.999825,0.000000,0.002348,0.000191
0,-50,25,-->,0.966977,0.589827,0.432965,0.999825,0.000000,0.002348,0.000191
0,-50,50,-->,0.966977,0.589827,0.432965,0.999825,0.000000,0.002348,0.000191
0,-50,75,-->,0.966977,0.589827,0.432965,0.999825,0.000000,0.002348,0.000191
0,-50,100,-->,0.966977,0.589827,0.432965,0.999825,0.000000,0.002348,0.000191
0,-50,128,-->,0.966977,0.589827,0.432965,0.999825,0.000000,0.002348,0.000191
0,-25,-127,-->,0.999863,0.175108,0.106322,0.448120,0.000000,0.000122,0.177236
0,-25,-100,-->,0.999907,0.181669,0.112901,0.469673,0.000000,0.000093,0.166946
0,-25,-75,-->,0.999909,0.192112,0.123141,0.504139,0.000000,0.000091,0.153838
0,-25,-50,-->,0.999667,0.253127,0.143741,0.585733,0.000000,0.000023,0.302167
0,-25,-25,-->,0.999653,0.349868,0.182121,0.779584,0.000000,0.000000,0.447204
0,-25,0,-->,0.966977,0.589827,0.432965,0.999825,0.000000,0.002348,0.000191
0,-25,25,-->,0.966977,0.589827,0.432965,0.999825,0.000000,0.002348,0.000191
0,-25,50,-->,0.966977,0.589827,0.432965,0.999825,0.000000,0.002348,0.000191
0,-25,75,-->,0.966977,0.589827,0.432965,0.999825,0.000000,0.002348,0.000191
0,-25,100,-->,0.966977,0.589827,0.432965,0.999825,0.000000,0.002348,0.000191
0,-25,128,-->,0.966977,0.589827,0.432965,0.999825,0.000000,0.002348,0.000191
0,0,-127,-->,0.999863,0.175108,0.106322,0.448120,0.000000,0.000122,0.177236
0,0,-100,-->,0.999907,0.181669,0.112901,0.469672,0.000000,0.000093,0.166946
0,0,-75,-->,0.999909,0.192112,0.123141,0.504139,0.000000,0.000091,0.153838
0,0,-50,-->,0.999667,0.253127,0.143740,0.585733,0.000000,0.000023,0.302167
0,0,-25,-->,0.999653,0.349868,0.182121,0.779583,0.000000,0.000000,0.447204
0,0,0,-->,0.966977,0.589827,0.432965,0.999825,0.000000,0.002348,0.000191
0,0,25,-->,0.966977,0.589827,0.432965,0.999825,0.000000,0.002348,0.000191
0,0,50,-->,0.966977,0.589827,0.432965,0.999825,0.000000,0.002348,0.000191
0,0,75,-->,0.966977,0.589827,0.432965,0.999825,0.000000,0.002348,0.000191
0,0,100,-->,0.966977,0.589827,0.432965,0.999825,0.000000,0.002348,0.000191
0,0,128,-->,0.966977,0.589827,0.432965,0.999825,0.000000,0.002348,0.000191
0,25,-127,-->,0.999735,0.166325,0.088948,0.395631,0.000000,0.000120,0.241271
0,25,-100,-->,0.999878,0.171141,0.090145,0.402216,0.000000,0.000048,0.251153
0,25,-75,-->,0.999720,0.177836,0.086171,0.399071,0.000000,0.000089,0.311005
0,25,-50,-->,0.984497,0.159806,0.063421,0.390463,0.000000,0.000000,0.824341
0,25,-25,-->,0.607200,0.603959,0.109292,0.645922,0.000000,0.000000,0.971456
0,25,0,-->,0.362858,0.907220,0.255559,0.839655,0.000351,0.000000,0.252219
0,25,25,-->,0.362858,0.907220,0.255559,0.839655,0.000351,0.000000,0.252219
0,25,50,-->,0.362858,0.907220,0.255559,0.839655,0.000351,0.000000,0.252219
0,25,75,-->,0.362858,0.907220,0.255559,0.839655,0.000351,0.000000,0.252219
0,25,100,-->,0.362858,0.907220,0.255559,0.839655,0.000351,0.000000,0.252219
0,25,128,-->,0.362858,0.907220,0.255559,0.839655,0.000351,0.000000,0.252219
0,50,-127,-->,0.999154,0.151067,0.072876,0.341663,0.000000,0.000201,0.300991
0,50,-100,-->,0.999066,0.149177,0.069032,0.330443,0.000000,0.000186,0.333536
0,50,-75,-->,0.992921,0.097539,0.038471,0.241402,0.000001,0.000000,0.709107
0,50,-50,-->,0.525401,0.463670,0.013687,0.259527,0.000000,0.000000,0.995452
0,50,-25,-->,0.143929,0.925916,0.042598,0.327569,0.000005,0.000000,0.923448
0,50,0,-->,0.223421,0.974472,0.229746,0.706578,0.012493,0.000000,0.019695
0,50,25,-->,0.223421,0.974472,0.229746,0.706578,0.012493,0.000000,0.019695
0,50,50,-->,0.223421,0.974472,0.229746,0.706578,0.012493,0.000000,0.019695
0,50,75,-->,0.223421,0.974472,0.229746,0.706578,0.012493,0.000000,0.019695
0,50,100,-->,0.223421,0.974472,0.229746,0.706578,0.012493,0.000000,0.019695
0,50,128,-->,0.223421,0.974472,0.229746,0.706578,0.012493,0.000000,0.019695
0,75,-127,-->,0.999111,0.122113,0.052620,0.262377,0.000000,0.000188,0.381817
0,75,-100,-->,0.999593,0.095342,0.038435,0.209770,0.000000,0.000037,0.491151
0,75,-75,-->,0.608558,0.300614,0.001098,0.024632,0.000709,0.000000,0.987461
0,75,-50,-->,0.092211,0.852241,0.003841,0.036384,0.000177,0.000000,0.967390
0,75,-25,-->,0.085247,0.999285,0.051324,0.235224,0.002597,0.000000,0.560265
0,75,0,-->,0.142639,0.999166,0.208952,0.552077,0.064658,0.000000,0.000000
0,75,25,-->,0.142639,0.999166,0.208952,0.552077,0.064658,0.000000,0.000000
0,75,50,-->,0.142639,0.999166,0.208952,0.552077,0.064658,0.000000,0.000000
0,75,75,-->,0.142639,0.999166,0.208952,0.552077,0.064658,0.000000,0.000000
0,75,100,-->,0.142639,0.999166,0.208952,0.552077,0.064658,0.000000,0.000000
0,75,128,-->,0.142639,0.999166,0.208952,0.552077,0.064658,0.000000,0.000000
0,100,-127,-->,0.998911,0.069400,0.028169,0.154163,0.000000,0.000020,0.504893
0,100,-100,-->,0.780897,0.099288,0.001226,0.010983,0.000013,0.000000,0.970294
0,100,-75,-->,0.108233,0.681403,0.000097,0.000988,0.000161,0.000000,0.970100
0,100,-50,-->,0.010240,0.995521,0.005034,0.027094,0.000275,0.000000,0.706466
0,100,-25,-->,0.079773,0.999763,0.085186,0.278474,0.012487,0.000000,0.290482
0,100,0,-->,0.127881,0.999941,0.195737,0.511380,0.079307,0.000000,0.000000
0,100,25,-->,0.127881,0.999941,0.195737,0.511380,0.079307,0.000000,0.000000
0,100,50,-->,0.127881,0.999941,0.195737,0.511380,0.079307,0.000000,0.000000
0,100,75,-->,0.127881,0.999941,0.195737,0.511380,0.079307,0.000000,0.000000
0,100,100,-->,0.127881,0.999941,0.195737,0.511380,0.079307,0.000000,0.000000
0,100,128,-->,0.127881,0.999941,0.195737,0.511380,0.079307,0.000000,0.000000
0,128,-127,-->,0.980911,0.007797,0.003616,0.021485,0.000000,0.000000,0.762417
0,128,-100,-->,0.257966,0.262097,0.000105,0.000660,0.000294,0.000000,0.991279
0,128,-75,-->,0.009238,0.917266,0.000447,0.003389,0.000018,0.000000,0.791209
0,128,-50,-->,0.012406,0.998208,0.009531,0.038109,0.001379,0.000000,0.618068
0,128,-25,-->,0.095205,0.999891,0.112278,0.350529,0.018273,0.000000,0.184742
0,128,0,-->,0.124909,1.000000,0.192360,0.502593,0.081301,0.000000,0.000000
0,128,25,-->,0.124909,1.000000,0.192360,0.502593,0.081301,0.000000,0.000000
0,128,50,-->,0.124909,1.000000,0.192360,0.502593,0.081301,0.000000,0.000000
0,128,75,-->,0.124909,1.000000,0.192360,0.502593,0.081301,0.000000,0.000000
0,128,100,-->,0.124909,1.000000,0.192360,0.502593,0.081301,0.000000,0.000000
0,128,128,-->,0.124909,1.000000,0.192360,0.502593,0.081301,0.000000,0.000000
20,-127,-127,-->,0.999926,0.111899,0.082133,0.329344,0.000000,0.002373,0.067613
20,-127,-100,-->,0.999970,0.113779,0.099679,0.376145,0.000000,0.009774,0.035240
20,-127,-75,-->,0.999984,0.111129,0.126066,0.415298,0.000000,0.039107,0.007739
20,-127,-50,-->,0.999936,0.101686,0.164114,0.427994,0.000000,0.141673,0.000410
20,-127,-25,-->,0.994789,0.092348,0.216008,0.461880,0.000000,0.540093,0.000335
20,-127,0,-->,0.791544,0.080284,0.362156,0.541555,0.000000,0.994604,0.000000
20,-127,25,-->,0.459854,0.081818,0.682114,0.574605,0.000015,0.998617,0.000000
20,-127,50,-->,0.378271,0.094081,0.809271,0.577727,0.000005,0.994185,0.000000
20,-127,75,-->,0.378271,0.094081,0.809271,0.577727,0.000005,0.994185,0.000000
20,-127,100,-->,0.378271,0.094081,0.809271,0.577727,0.000005,0.994185,0.000000
20,-127,128,-->,0.378271,0.094081,0.809271,0.577727,0.000005,0.994185,0.000000
20,-100,-127,-->,0.999926,0.111899,0.082133,0.329344,0.000000,0.002373,0.067613
20,-100,-100,-->,0.999970,0.113779,0.099679,0.376145,0.000000,0.009774,0.035240
20,-100,-75,-->,0.999984,0.111129,0.126066,0.415298,0.000000,0.039107,0.007739
20,-100,-50,-->,0.999936,0.101686,0.164114,0.427994,0.000000,0.141673,0.000410
20,-100,-25,-->,0.994789,0.092348,0.216008,0.461880,0.000000,0.540093,0.000335
20,-100,0,-->,0.791544,0.080284,0.362156,0.541555,0.000000,0.994604,0.000000
20,-100,25,-->,0.459854,0.081818,0.682114,0.574605,0.000015,0.998617,0.000000
20,-100,50,-->,0.378271,0.094081,0.809271,0.577727,0.000005,0.994185,0.000000
20,-100,75,-->,0.378271,0.094081,0.809271,0.577727,0.000005,0.994185,0.000000
20,-100,100,-->,0.378271,0.094081,0.809271,0.577727,0.000005,0.994185,0.000000
20,-100,128,-->,0.378271,0.094081,0.809271,0.577727,0.000005,0.994185,0.000000
20,-75,-127,-->,0.999926,0.111782,0.077904,0.316649,0.000000,0.000913,0.078794
20,-75,-100,-->,0.999949,0.114160,0.092842,0.360903,0.000000,0.006051,0.048024
20,-75,-75,-->,0.999998,0.113387,0.116070,0.406506,0.000000,0.022078,0.014280
20,-75,-50,-->,0.999947,0.106255,0.154319,0.431728,0.000000,0.103453,0.001538
20,-75,-25,-->,0.996763,0.104672,0.224819,0.489264,0.000000,0.460937,0.000356
20,-75,0,-->,0.812935,0.089373,0.369376,0.563083,0.000000,0.992207,0.000000
20,-75,25,-->,0.450160,0.092706,0.719216,0.596634,0.000010,0.997783,0.000000
20,-75,50,-->,0.373700,0.104169,0.847904,0.596698,0.000009,0.988320,0.000000
20,-75,75,-->,0.373700,0.104169,0.847904,0.596698,0.000009,0.988320,0.000000
20,-75,100,-->,0.373700,0.104169,0.847904,0.596698,0.000009,0.988320,0.000000
20,-75,128,-->,0.373700,0.104169,0.847904,0.596698,0.000009,0.988320,0.000000
20,-50,-127,-->,0.999941,0.108804,0.069564,0.286056,0.000000,0.000073,0.108972
20,-50,-100,-->,0.999940,0.114012,0.080053,0.325763,0.000000,0.000873,0.077550
20,-50,-75,-->,0.999963,0.115525,0.095880,0.370270,0.000000,0.006797,0.044559
20,-50,-50,-->,0.999995,0.128497,0.131211,0.461242,0.000000,0.019343,0.012346
20,-50,-25,-->,0.999912,0.148179,0.230427,0.576983,0.000000,0.201231,0.000186
20,-50,0,-->,0.866368,0.109732,0.396757,0.618576,0.000000,0.994262,0.000000
20,-50,25,-->,0.429446,0.123879,0.821942,0.664995,0.000008,0.986506,0.000000
20,-50,50,-->,0.369778,0.132752,0.925512,0.653761,0.000005,0.923270,0.000000
20,-50,75,-->,0.369778,0.132752,0.925512,0.653761,0.000005,0.923270,0.000000
20,-50,100,-->,0.369778,0.132752,0.925512,0.653761,0.000005,0.923270,0.000000
20,-50,128,-->,0.369778,0.132752,0.925512,0.653761,0.000005,0.923270,0.000000
20,-25,-127,-->,0.999970,0.102133,0.059911,0.246616,0.000000,0.000076,0.148716
20,-25,-100,-->,0.999962,0.108007,0.066783,0.275841,0.000000,0.000063,0.127028
20,-25,-75,-->,0.999956,0.113996,0.075829,0.312134,0.000000,0.000139,0.097446
20,-25,-50,-->,0.999905,0.156773,0.102457,0.427590,0.000000,0.000136,0.131631
20,-25,-25,-->,0.999805,0.195335,0.185836,0.650766,0.000000,0.012697,0.030126
20,-25,0,-->,0.772991,0.180622,0.430901,0.742214,0.000000,0.528242,0.000000
20,-25,25,-->,0.421090,0.187591,0.899087,0.754134,0.000000,0.701879,0.000000
20,-25,50,-->,0.394063,0.180709,0.944998,0.737027,0.000000,0.669647,0.000000
20,-25,75,-->,0.394063,0.180709,0.944998,0.737027,0.000000,0.669647,0.000000
20,-25,100,-->,0.394063,0.180709,0.944998,0.737027,0.000000,0.669647,0.000000
20,-25,128,-->,0.394063,0.180709,0.944998,0.737027,0.000000,0.669647,0.000000
20,0,-127,-->,0.999954,0.089906,0.047774,0.198139,0.000000,0.000094,0.197812
20,0,-100,-->,0.999954,0.093489,0.050286,0.209223,0.000000,0.000108,0.193822
20,0,-75,-->,0.999601,0.099616,0.049959,0.219312,0.000000,0.000180,0.253497
20,0,-50,-->,0.999603,0.120720,0.048458,0.259487,0.000000,0.000016,0.490104
20,0,-25,-->,0.855922,0.291328,0.127880,0.553826,0.000000,0.000000,0.431195
20,0,0,-->,0.479408,0.352125,0.259979,0.833651,0.000000,0.000151,0.000000
20,0,25,-->,0.321176,0.361454,0.851081,0.815367,0.000000,0.000489,0.000000
20,0,50,-->,0.309262,0.339585,0.905576,0.806270,0.000033,0.000777,0.000000
20,0,75,-->,0.309262,0.339585,0.905576,0.806270,0.000033,0.000777,0.000000
20,0,100,-->,0.309262,0.339585,0.905576,0.806270,0.000033,0.000777,0.000000
20,0,128,-->,0.309262,0.339585,0.905576,0.806270,0.000033,0.000777,0.000000
20,25,-127,-->,0.997757,0.067412,0.032960,0.137618,0.000000,0.000060,0.261839
20,25,-100,-->,0.997622,0.063356,0.030394,0.128683,0.000000,0.000060,0.284082
20,25,-75,-->,0.988569,0.029878,0.012404,0.068618,0.000000,0.000002,0.618652
20,25,-50,-->,0.674520,0.125411,0.021377,0.127779,0.000000,0.000000,0.830117
20,25,-25,-->,0.352475,0.464587,0.084927,0.386838,0.000000,0.000000,0.716219
20,25,0,-->,0.248112,0.803451,0.209482,0.717737,0.000057,0.000000,0.030303
20,25,25,-->,0.231600,0.799556,0.563280,0.757618,0.660059,0.000001,0.000000
20,25,50,-->,0.221353,0.753490,0.659078,0.763553,0.824506,0.000026,0.000000
20,25,75,-->,0.221353,0.753490,0.659078,0.763553,0.824506,0.000026,0.000000
20,25,100,-->,0.221353,0.753490,0.659078,0.763553,0.824506,0.000026,0.000000
20,25,128,-->,0.221353,0.753490,0.659078,0.763553,0.824506,0.000026,0.000000
20,50,-127,-->,0.998136,0.032052,0.014856,0.063673,0.000000,0.000008,0.339801
20,50,-100,-->,0.982337,0.018042,0.007097,0.035497,0.000000,0.000001,0.545442
20,50,-75,-->,0.735614,0.044393,0.000024,0.000193,0.000000,0.000000,0.932293
20,50,-50,-->,0.121861,0.333004,0.001044,0.006990,0.000000,0.000000,0.946729
20,50,-25,-->,0.053002,0.862159,0.011749,0.069522,0.000000,0.000000,0.813846
20,50,0,-->,0.145902,0.999898,0.173379,0.545075,0.007756,0.000000,0.000043
20,50,25,-->,0.125895,0.999837,0.284644,0.550360,0.378934,0.000000,0.000009
20,50,50,-->,0.120528,0.999472,0.290472,0.550927,0.506594,0.000009,0.000003
20,50,75,-->,0.120528,0.999472,0.290472,0.550927,0.506594,0.000009,0.000003
20,50,100,-->,0.120528,0.999472,0.290472,0.550927,0.506594,0.000009,0.000003
20,50,128,-->,0.120528,0.999472,0.290472,0.550927,0.506594,0.000009,0.000003
20,75,-127,-->,0.991997,0.012844,0.005299,0.024370,0.000000,0.000000,0.429295
20,75,-100,-->,0.853628,0.023502,0.000133,0.000946,0.000000,0.000000,0.916135
20,75,-75,-->,0.165034,0.289412,0.000005,0.000010,0.000005,0.000000,0.944850
20,75,-50,-->,0.025610,0.807361,0.000118,0.000900,0.000000,0.000000,0.770277
20,75,-25,-->,0.010079,0.996753,0.009485,0.030726,0.003098,0.000000,0.530311
20,75,0,-->,0.085334,1.000000,0.138987,0.353708,0.085910,0.000000,0.000005
20,75,25,-->,0.072774,0.999981,0.170387,0.345865,0.285951,0.000000,0.000000
20,75,50,-->,0.069579,0.999950,0.177749,0.348252,0.376343,0.000000,0.000000
20,75,75,-->,0.069579,0.999950,0.177749,0.348252,0.376343,0.000000,0.000000
20,75,100,-->,0.069579,0.999950,0.177749,0.348252,0.376343,0.000000,0.000000
20,75,128,-->,0.069579,0.999950,0.177749,0.348252,0.376343,0.000000,0.000000
20,100,-127,-->,0.893790,0.015546,0.000155,0.000952,0.000000,0.000000,0.822580
20,100,-100,-->,0.256141,0.200992,0.000000,0.000003,0.000003,0.000000,0.955558
20,100,-75,-->,0.040492,0.748402,0.000017,0.000138,0.000000,0.000000,0.734460
20,100,-50,-->,0.005441,0.976241,0.002308,0.007656,0.000972,0.000000,0.452654
20,100,-25,-->,0.042028,0.999989,0.053613,0.134948,0.027460,0.000000,0.135470
20,100,0,-->,0.058898,0.999812,0.109532,0.239676,0.120794,0.000000,0.000000
20,100,25,-->,0.055353,0.999861,0.130992,0.257066,0.256587,0.000000,0.000000
20,100,50,-->,0.054445,0.999814,0.136869,0.264509,0.314284,0.000000,0.000000
20,100,75,-->,0.054445,0.999814,0.136869,0.264509,0.314284,0.000000,0.000000
20,100,100,-->,0.054445,0.999814,0.136869,0.264509,0.314284,0.000000,0.000000
20,100,128,-->,0.054445,0.999814,0.136869,0.264509,0.314284,0.000000,0.000000
20,128,-127,-->,0.472587,0.115152,0.000000,0.000002,0.000000,0.000000,0.964816
20,128,-100,-->,0.058571,0.641789,0.000003,0.000027,0.000000,0.000000,0.777383
20,128,-75,-->,0.005206,0.935767,0.000046,0.000220,0.000075,0.000000,0.482189
20,128,-50,-->,0.017890,0.996959,0.009492,0.029224,0.004151,0.000000,0.307911
20,128,-25,-->,0.053677,0.999985,0.075971,0.188684,0.039251,0.000000,0.060021
20,128,0,-->,0.058798,0.999812,0.110131,0.240136,0.123090,0.000000,0.000000
20,128,25,-->,0.056008,0.999891,0.127969,0.254270,0.229138,0.000000,0.000000
20,128,50,-->,0.055185,0.999863,0.132850,0.259681,0.273060,0.000000,0.000000
20,128,75,-->,0.055185,0.999863,0.132850,0.259681,0.273060,0.000000,0.000000
20,128,100,-->,0.055185,0.999863,0.132850,0.259681,0.273060,0.000000,0.000000
20,128,128,-->,0.055185,0.999863,0.132850,0.259681,0.273060,0.000000,0.000000
40,-127,-127,-->,0.999929,0.036130,0.039346,0.105307,0.000000,0.029857,0.021092
40,-127,-100,-->,0.999670,0.034671,0.049754,0.113731,0.000000,0.076830,0.006329
40,-127,-75,-->,0.999879,0.027930,0.052550,0.103637,0.000000,0.183275,0.000907
40,-127,-50,-->,0.999505,0.013334,0.034404,0.061201,0.000000,0.446890,0.000000
40,-127,-25,-->,0.935182,0.004449,0.040319,0.044912,0.000000,0.892927,0.000038
40,-127,0,-->,0.696750,0.006153,0.248496,0.120370,0.000000,0.999596,0.000000
40,-127,25,-->,0.440495,0.008504,0.545814,0.200550,0.000000,0.999980,0.000000
40,-127,50,-->,0.240342,0.015365,0.735480,0.218793,0.000013,0.998722,0.000000
40,-127,75,-->,0.147603,0.019275,0.853828,0.214693,0.000000,0.989135,0.000000
40,-127,100,-->,0.147603,0.019275,0.853828,0.214693,0.000000,0.989135,0.000000
40,-127,128,-->,0.147603,0.019275,0.853828,0.214693,0.000000,0.989135,0.000000
40,-100,-127,-->,0.999942,0.035466,0.035961,0.100131,0.000000,0.016585,0.030528
40,-100,-100,-->,0.999794,0.036199,0.044994,0.112071,0.000000,0.051768,0.011756
40,-100,-75,-->,0.999860,0.031435,0.054028,0.111064,0.000000,0.127655,0.001866
40,-100,-50,-->,0.999702,0.019172,0.045761,0.085058,0.000000,0.377511,0.000025
40,-100,-25,-->,0.945236,0.006888,0.043210,0.064439,0.000000,0.873209,0.000009
40,-100,0,-->,0.691572,0.007935,0.258504,0.147686,0.000000,0.999529,0.000000
40,-100,25,-->,0.422042,0.011484,0.566609,0.235817,0.000000,0.999974,0.000000
40,-100,50,-->,0.212275,0.020378,0.778475,0.248922,0.000009,0.996660,0.000000
40,-100,75,-->,0.128752,0.024775,0.896294,0.242956,0.000000,0.977507,0.000000
40,-100,100,-->,0.128752,0.024775,0.896294,0.242956,0.000000,0.977507,0.000000
40,-100,128,-->,0.128752,0.024775,0.896294,0.242956,0.000000,0.977507,0.000000
40,-75,-127,-->,0.997800,0.031331,0.029209,0.082459,0.000000,0.007676,0.057156
40,-75,-100,-->,0.999931,0.036369,0.037918,0.104194,0.000000,0.021151,0.026638
40,-75,-75,-->,0.999695,0.035824,0.048202,0.114793,0.000000,0.064648,0.008664
40,-75,-50,-->,0.999953,0.034264,0.068726,0.140509,0.000000,0.232735,0.000169
40,-75,-25,-->,0.971637,0.014287,0.052771,0.114085,0.000000,0.803548,0.000004
40,-75,0,-->,0.681919,0.011462,0.274248,0.198366,0.000000,0.999527,0.000000
40,-75,25,-->,0.398697,0.015362,0.622927,0.285005,0.000000,0.999931,0.000000
40,-75,50,-->,0.171564,0.032391,0.868828,0.304110,0.000014,0.983720,0.000000
40,-75,75,-->,0.118265,0.036907,0.955484,0.291709,0.000000,0.928625,0.000000
40,-75,100,-->,0.118265,0.036907,0.955484,0.291709,0.000000,0.928625,0.000000
40,-75,128,-->,0.118265,0.036907,0.955484,0.291709,0.000000,0.928625,0.000000
40,-50,-127,-->,0.995166,0.023923,0.020248,0.056159,0.000000,0.005733,0.097050
40,-50,-100,-->,0.996996,0.030157,0.027488,0.077622,0.000000,0.007027,0.066342
40,-50,-75,-->,0.999166,0.043569,0.041334,0.121777,0.000000,0.006414,0.040268
40,-50,-50,-->,0.999963,0.061613,0.073774,0.210180,0.000000,0.042832,0.014228
40,-50,-25,-->,0.991106,0.046633,0.124625,0.245519,0.000000,0.433519,0.000003
40,-50,0,-->,0.601505,0.063172,0.278250,0.335800,0.000000,0.777486,0.000000
40,-50,25,-->,0.269026,0.071450,0.651591,0.402140,0.000000,0.881076,0.000000
40,-50,50,-->,0.165245,0.060322,0.982591,0.394240,0.000002,0.872414,0.000000
40,-50,75,-->,0.158467,0.059021,0.988796,0.361750,0.000000,0.781780,0.000000
40,-50,100,-->,0.158467,0.059021,0.988796,0.361750,0.000000,0.781780,0.000000
40,-50,128,-->,0.158467,0.059021,0.988796,0.361750,0.000000,0.781780,0.000000
40,-25,-127,-->,0.995756,0.014743,0.010336,0.028444,0.000000,0.001137,0.146808
40,-25,-100,-->,0.995222,0.018995,0.014217,0.039705,0.000000,0.002376,0.130745
40,-25,-75,-->,0.993024,0.035965,0.019523,0.063639,0.000000,0.000184,0.175272
40,-25,-50,-->,0.998876,0.062475,0.031506,0.120902,0.000000,0.000026,0.206212
40,-25,-25,-->,0.834239,0.127114,0.121178,0.413123,0.000000,0.013600,0.015031
40,-25,0,-->,0.589841,0.118986,0.357190,0.476856,0.000000,0.291060,0.000000
40,-25,25,-->,0.339629,0.122532,0.681556,0.513932,0.000000,0.454453,0.000000
40,-25,50,-->,0.232937,0.111027,0.996211,0.507592,0.000000,0.479018,0.000000
40,-25,75,-->,0.221379,0.105345,0.999836,0.485131,0.000000,0.435387,0.000000
40,-25,100,-->,0.221379,0.105345,0.999836,0.485131,0.000000,0.435387,0.000000
40,-25,128,-->,0.221379,0.105345,0.999836,0.485131,0.000000,0.435387,0.000000
40,0,-127,-->,0.980241,0.011226,0.004270,0.010721,0.000000,0.000098,0.214315
40,0,-100,-->,0.973901,0.011958,0.004314,0.012329,0.000000,0.000032,0.242838
40,0,-75,-->,0.956644,0.002460,0.000300,0.001136,0.000000,0.000000,0.409740
40,0,-50,-->,0.771946,0.050867,0.002950,0.012018,0.000000,0.000000,0.475661
40,0,-25,-->,0.591919,0.255986,0.076309,0.287236,0.000000,0.000000,0.258093
40,0,0,-->,0.257555,0.218024,0.176933,0.641257,0.000000,0.000012,0.000000
40,0,25,-->,0.197081,0.234961,0.634737,0.623028,0.000042,0.000068,0.000000
40,0,50,-->,0.172568,0.202667,0.981603,0.616185,0.005088,0.000092,0.000000
40,0,75,-->,0.164498,0.184630,0.999336,0.590822,0.001569,0.000176,0.000000
40,0,100,-->,0.164498,0.184630,0.999336,0.590822,0.001569,0.000176,0.000000
40,0,128,-->,0.164498,0.184630,0.999336,0.590822,0.001569,0.000176,0.000000
40,25,-127,-->,0.945319,0.002111,0.000311,0.001015,0.000000,0.000000,0.372520
40,25,-100,-->,0.924191,0.007756,0.000061,0.000233,0.000000,0.000000,0.448915
40,25,-75,-->,0.720661,0.068989,0.000002,0.000042,0.000000,0.000000,0.564787
40,25,-50,-->,0.403943,0.148017,0.000000,0.000002,0.000000,0.000000,0.625980
40,25,-25,-->,0.248619,0.416485,0.028302,0.104992,0.000000,0.000000,0.466977
40,25,0,-->,0.141180,0.616082,0.162130,0.495974,0.000041,0.000000,0.000000
40,25,25,-->,0.132683,0.484319,0.443948,0.499835,0.298743,0.000000,0.000000
40,25,50,-->,0.120377,0.331865,0.819828,0.519838,0.506006,0.000000,0.000000
40,25,75,-->,0.111400,0.256165,0.997822,0.520067,0.509758,0.000016,0.000000
40,25,100,-->,0.111400,0.256165,0.997822,0.520067,0.509758,0.000016,0.000000
40,25,128,-->,0.111400,0.256165,0.997822,0.520067,0.509758,0.000016,0.000000
40,50,-127,-->,0.857194,0.023545,0.000022,0.000124,0.000000,0.000000,0.538779
40,50,-100,-->,0.745565,0.058830,0.000007,0.000062,0.000000,0.000000,0.642033
40,50,-75,-->,0.365816,0.168304,0.000000,0.000002,0.000000,0.000000,0.693040
40,50,-50,-->,0.146994,0.478704,0.000000,0.000000,0.000000,0.000000,0.580787
40,50,-25,-->,0.077409,0.687856,0.001937,0.007460,0.000000,0.000000,0.459154
40,50,0,-->,0.088946,0.850282,0.123342,0.349705,0.005611,0.000000,0.000000
40,50,25,-->,0.069911,0.766568,0.235594,0.315562,0.375640,0.000000,0.000000
40,50,50,-->,0.062072,0.637814,0.288839,0.342876,0.777240,0.000000,0.000000
40,50,75,-->,0.037776,0.489202,0.467840,0.384848,0.995523,0.000031,0.000002
40,50,100,-->,0.037776,0.489202,0.467840,0.384848,0.995523,0.000031,0.000002
40,50,128,-->,0.037776,0.489202,0.467840,0.384848,0.995523,0.000031,0.000002
40,75,-127,-->,0.671857,0.080056,0.000017,0.000173,0.000000,0.000000,0.694854
40,75,-100,-->,0.379327,0.144963,0.000002,0.000022,0.000000,0.000000,0.752840
40,75,-75,-->,0.147652,0.461797,0.000000,0.000000,0.000000,0.000000,0.670452
40,75,-50,-->,0.058078,0.740797,0.000086,0.000374,0.000000,0.000000,0.496260
40,75,-25,-->,0.010057,0.927078,0.001538,0.006302,0.000185,0.000000,0.308483
40,75,0,-->,0.040580,0.999894,0.050965,0.133093,0.024662,0.000000,0.009895
40,75,25,-->,0.022952,0.998808,0.062820,0.111686,0.361571,0.000000,0.000006
40,75,50,-->,0.015652,0.989498,0.047341,0.104094,0.662226,0.000000,0.000050
40,75,75,-->,0.010707,0.973384,0.042642,0.104591,0.863501,0.000016,0.000034
40,75,100,-->,0.010707,0.973384,0.042642,0.104591,0.863501,0.000016,0.000034
40,75,128,-->,0.010707,0.973384,0.042642,0.104591,0.863501,0.000016,0.000034
40,100,-127,-->,0.341672,0.149227,0.000002,0.000016,0.000000,0.000000,0.772970
40,100,-100,-->,0.154556,0.407462,0.000000,0.000002,0.000002,0.000000,0.737188
40,100,-75,-->,0.062213,0.733088,0.000081,0.000358,0.000000,0.000000,0.537598
40,100,-50,-->,0.009008,0.923594,0.001123,0.004648,0.000193,0.000000,0.302862
40,100,-25,-->,0.005578,0.994382,0.006790,0.012459,0.010433,0.000000,0.100731
40,100,0,-->,0.007831,0.999448,0.017146,0.024710,0.143811,0.000000,0.000371
40,100,25,-->,0.003829,0.998777,0.010945,0.017558,0.356541,0.000000,0.000000
40,100,50,-->,0.002350,0.993412,0.007786,0.013363,0.526339,0.000000,0.000032
40,100,75,-->,0.001674,0.991699,0.006323,0.010950,0.633109,0.000000,0.000135
40,100,100,-->,0.001674,0.991699,0.006323,0.010950,0.633109,0.000000,0.000135
40,100,128,-->,0.001674,0.991699,0.006323,0.010950,0.633109,0.000000,0.000135
40,128,-127,-->,0.154007,0.388639,0.000000,0.000000,0.000000,0.000000,0.753453
40,128,-100,-->,0.065319,0.726334,0.000049,0.000216,0.000000,0.000000,0.555039
40,128,-75,-->,0.009443,0.915674,0.001040,0.004330,0.000036,0.000000,0.301360
40,128,-50,-->,0.003825,0.987475,0.004183,0.008077,0.007590,0.000000,0.088501
40,128,-25,-->,0.004931,0.999035,0.008951,0.012860,0.091571,0.000000,0.000134
40,128,0,-->,0.003259,0.995601,0.008546,0.011293,0.221673,0.000000,0.000053
40,128,25,-->,0.002514,0.998790,0.007212,0.011459,0.351940,0.000000,0.000000
40,128,50,-->,0.000930,0.993901,0.003454,0.005065,0.466972,0.000000,0.000014
40,128,75,-->,0.001590,0.993650,0.005391,0.009150,0.539670,0.000000,0.000036
40,128,100,-->,0.001590,0.993650,0.005391,0.009150,0.539670,0.000000,0.000036
40,128,128,-->,0.001590,0.993650,0.005391,0.009150,0.539670,0.000000,0.000036
60,-127,-127,-->,0.992901,0.000636,0.000448,0.001318,0.000000,0.061505,0.000875
60,-127,-100,-->,0.996066,0.000035,0.000085,0.000050,0.000000,0.124478,0.000052
60,-127,-75,-->,0.986580,0.000053,0.000398,0.000112,0.000000,0.176632,0.000061
60,-127,-50,-->,0.943601,0.000008,0.004044,0.000008,0.000000,0.314898,0.000013
60,-127,-25,-->,0.782440,0.000000,0.039934,0.000002,0.000000,0.627902,0.000002
60,-127,0,-->,0.408910,0.000000,0.120276,0.000063,0.000000,0.926119,0.000000
60,-127,25,-->,0.168408,0.000000,0.341096,0.000103,0.000000,0.985995,0.000000
60,-127,50,-->,0.134611,0.000005,0.678676,0.000162,0.000000,0.992864,0.000000
60,-127,75,-->,0.062205,0.000080,0.873030,0.001172,0.000000,0.983920,0.000000
60,-127,100,-->,0.017945,0.000289,0.930249,0.003357,0.000000,0.952752,0.000000
60,-127,128,-->,0.014423,0.000346,0.935156,0.003741,0.000000,0.947043,0.000000
60,-100,-127,-->,0.987306,0.001569,0.001090,0.003234,0.000000,0.019129,0.005496
60,-100,-100,-->,0.995208,0.000224,0.000169,0.000462,0.000000,0.077561,0.000309
60,-100,-75,-->,0.994435,0.000040,0.000146,0.000061,0.000000,0.142046,0.000058
60,-100,-50,-->,0.947037,0.000008,0.002957,0.000017,0.000000,0.283202,0.000030
60,-100,-25,-->,0.777692,0.000000,0.041992,0.000001,0.000000,0.607755,0.000002
60,-100,0,-->,0.369440,0.000000,0.125975,0.000039,0.000000,0.937532,0.000000
60,-100,25,-->,0.160242,0.000000,0.404261,0.000103,0.000000,0.986952,0.000000
60,-100,50,-->,0.112215,0.000020,0.767404,0.000403,0.000000,0.993152,0.000000
60,-100,75,-->,0.030186,0.000330,0.916662,0.003945,0.000000,0.964770,0.000000
60,-100,100,-->,0.003453,0.000813,0.961938,0.007489,0.000001,0.910644,0.000000
60,-100,128,-->,0.002808,0.000773,0.966239,0.007075,0.000003,0.902377,0.000000
60,-75,-127,-->,0.974912,0.000538,0.000234,0.000699,0.000000,0.000451,0.029270
60,-75,-100,-->,0.988117,0.001551,0.001083,0.003204,0.000000,0.019378,0.005715
60,-75,-75,-->,0.994782,0.000191,0.000154,0.000395,0.000000,0.083608,0.000289
60,-75,-50,-->,0.954546,0.000021,0.002078,0.000043,0.000000,0.216111,0.000058
60,-75,-25,-->,0.776368,0.000000,0.043600,0.000000,0.000000,0.559411,0.000001
60,-75,0,-->,0.325128,0.000000,0.122788,0.000001,0.000000,0.902095,0.000000
60,-75,25,-->,0.121768,0.001203,0.425451,0.007977,0.000000,0.942406,0.000000
60,-75,50,-->,0.070566,0.000846,0.794173,0.007331,0.000000,0.968561,0.000000
60,-75,75,-->,0.007828,0.001918,0.961781,0.017212,0.000001,0.911805,0.000000
60,-75,100,-->,0.006381,0.002485,0.990102,0.017298,0.000030,0.809543,0.000000
60,-75,128,-->,0.007478,0.002853,0.991047,0.019511,0.000046,0.796379,0.000000
60,-50,-127,-->,0.942639,0.000804,0.000060,0.000152,0.000000,0.000020,0.076705
60,-50,-100,-->,0.964369,0.000364,0.000081,0.000244,0.000000,0.000135,0.047521
60,-50,-75,-->,0.984937,0.001213,0.000815,0.002416,0.000000,0.008163,0.011263
60,-50,-50,-->,0.957865,0.000127,0.000556,0.000273,0.000000,0.088309,0.000370
60,-50,-25,-->,0.726496,0.000349,0.055823,0.001593,0.000000,0.391013,0.000000
60,-50,0,-->,0.440573,0.013810,0.211387,0.058942,0.000000,0.573309,0.000000
60,-50,25,-->,0.200659,0.023743,0.479520,0.112862,0.000000,0.668767,0.000000
60,-50,50,-->,0.106527,0.021778,0.796267,0.121868,0.000000,0.709613,0.000000
60,-50,75,-->,0.044960,0.016517,0.995454,0.102951,0.000034,0.709997,0.000000
60,-50,100,-->,0.040293,0.014527,0.997818,0.081249,0.000010,0.627627,0.000000
60,-50,128,-->,0.039717,0.014341,0.998041,0.079347,0.000008,0.618260,0.000000
60,-25,-127,-->,0.843842,0.012258,0.000000,0.000002,0.000000,0.000000,0.165806
60,-25,-100,-->,0.890040,0.004386,0.000006,0.000023,0.000000,0.000011,0.133113
60,-25,-75,-->,0.930464,0.001599,0.000041,0.000116,0.000000,0.000028,0.088792
60,-25,-50,-->,0.814347,0.014438,0.000189,0.000564,0.000000,0.000054,0.092871
60,-25,-25,-->,0.662285,0.055082,0.082035,0.162405,0.000000,0.020882,0.003211
60,-25,0,-->,0.463121,0.061624,0.275740,0.203525,0.000000,0.177628,0.000000
60,-25,25,-->,0.269819,0.065668,0.525934,0.242599,0.000000,0.284009,0.000000
60,-25,50,-->,0.170759,0.059107,0.802748,0.254904,0.000000,0.342457,0.000000
60,-25,75,-->,0.111369,0.049226,0.999377,0.236413,0.000000,0.358347,0.000000
60,-25,100,-->,0.098416,0.043830,0.999931,0.203044,0.000049,0.328503,0.000000
60,-25,128,-->,0.096494,0.043157,0.999921,0.198640,0.000071,0.323147,0.000000
60,0,-127,-->,0.700374,0.055141,0.000000,0.000000,0.000000,0.000000,0.249574
60,0,-100,-->,0.706000,0.052647,0.000000,0.000000,0.000000,0.000000,0.249046
60,0,-75,-->,0.707705,0.051193,0.000000,0.000000,0.000000,0.000000,0.245004
60,0,-50,-->,0.567014,0.113880,0.000000,0.000000,0.000000,0.000000,0.233655
60,0,-25,-->,0.433306,0.191220,0.020464,0.056165,0.000000,0.000000,0.176190
60,0,0,-->,0.181128,0.151052,0.129866,0.402029,0.000000,0.000000,0.000000
60,0,25,-->,0.129640,0.159826,0.492953,0.391408,0.000000,0.000005,0.000000
60,0,50,-->,0.100738,0.139571,0.779758,0.392589,0.000573,0.000009,0.000000
60,0,75,-->,0.088481,0.116581,0.999237,0.372657,0.018294,0.000014,0.000000
60,0,100,-->,0.087612,0.104087,1.000000,0.337899,0.010716,0.000099,0.000000
60,0,128,-->,0.086980,0.103014,1.000000,0.334456,0.010114,0.000375,0.000000
60,25,-127,-->,0.573257,0.121425,0.000000,0.000000,0.000000,0.000000,0.307107
60,25,-100,-->,0.543081,0.136496,0.000000,0.000000,0.000000,0.000000,0.323129
60,25,-75,-->,0.486664,0.159211,0.000000,0.000000,0.000000,0.000000,0.345782
60,25,-50,-->,0.302836,0.242433,0.000000,0.000000,0.000000,0.000000,0.329482
60,25,-25,-->,0.188570,0.385099,0.001774,0.004668,0.000000,0.000000,0.232932
60,25,0,-->,0.069396,0.476300,0.111481,0.243008,0.000008,0.000000,0.000000
60,25,25,-->,0.069292,0.364666,0.349340,0.232660,0.186927,0.000000,0.000000
60,25,50,-->,0.060031,0.248283,0.632475,0.240296,0.290590,0.000000,0.000000
60,25,75,-->,0.053182,0.155791,0.912963,0.256333,0.380837,0.000000,0.000000
60,25,100,-->,0.049326,0.126203,0.999936,0.240909,0.338104,0.000002,0.000000
60,25,128,-->,0.049590,0.126924,0.999883,0.240298,0.328955,0.000007,0.000000
60,50,-127,-->,0.442302,0.175225,0.000000,0.000000,0.000000,0.000000,0.366897
60,50,-100,-->,0.368270,0.205090,0.000000,0.000000,0.000000,0.000000,0.399639
60,50,-75,-->,0.254597,0.291239,0.000000,0.000000,0.000000,0.000000,0.413552
60,50,-50,-->,0.139895,0.494342,0.000000,0.000015,0.000000,0.000000,0.273388
60,50,-25,-->,0.073819,0.619933,0.000071,0.000480,0.000014,0.000000,0.132272
60,50,0,-->,0.016970,0.673581,0.062144,0.062765,0.014648,0.000000,0.000000
60,50,25,-->,0.015874,0.557811,0.181923,0.056455,0.299880,0.000000,0.000000
60,50,50,-->,0.020382,0.347601,0.264258,0.087453,0.572549,0.000000,0.000000
60,50,75,-->,0.021869,0.197023,0.499776,0.119225,0.743541,0.000000,0.000000
60,50,100,-->,0.017808,0.082203,0.905469,0.148580,0.874922,0.000000,0.000000
60,50,128,-->,0.017316,0.079869,0.924139,0.144322,0.869432,0.000000,0.000000
60,75,-127,-->,0.298695,0.251969,0.000000,0.000000,0.000000,0.000000,0.412172
60,75,-100,-->,0.208205,0.341478,0.000000,0.000000,0.000000,0.000000,0.413797
60,75,-75,-->,0.141826,0.501004,0.000000,0.000001,0.000000,0.000000,0.372973
60,75,-50,-->,0.072107,0.661357,0.000079,0.000703,0.000000,0.000000,0.243886
60,75,-25,-->,0.014943,0.775797,0.000823,0.002507,0.000428,0.000000,0.048271
60,75,0,-->,0.000000,0.862416,0.007516,0.000042,0.043434,0.000000,0.000000
60,75,25,-->,0.000011,0.777711,0.047214,0.000053,0.363652,0.000000,0.000000
60,75,50,-->,0.000008,0.671770,0.084815,0.000027,0.625374,0.000000,0.000000
60,75,75,-->,0.000115,0.511676,0.092520,0.000774,0.862094,0.000000,0.000000
60,75,100,-->,0.000029,0.446394,0.287398,0.000361,0.991875,0.000000,0.000000
60,75,128,-->,0.000044,0.434812,0.329425,0.000814,0.994148,0.000000,0.000000
60,100,-127,-->,0.191270,0.369075,0.000000,0.000000,0.000000,0.000000,0.406345
60,100,-100,-->,0.139995,0.508411,0.000000,0.000001,0.000000,0.000000,0.374549
60,100,-75,-->,0.075438,0.670384,0.000071,0.000244,0.000000,0.000000,0.328075
60,100,-50,-->,0.021176,0.804780,0.000765,0.002504,0.000290,0.000000,0.152074
60,100,-25,-->,0.000626,0.892337,0.000310,0.000606,0.002633,0.000000,0.008835
60,100,0,-->,0.000030,0.959675,0.000513,0.000075,0.119160,0.000000,0.000000
60,100,25,-->,0.000022,0.941578,0.005276,0.000110,0.359174,0.000000,0.000000
60,100,50,-->,0.000020,0.895303,0.018130,0.000098,0.569408,0.000000,0.000000
60,100,75,-->,0.000038,0.799534,0.039793,0.000195,0.752465,0.000000,0.000000
60,100,100,-->,0.000068,0.700205,0.062074,0.000429,0.915182,0.000000,0.000000
60,100,128,-->,0.000062,0.687337,0.070869,0.000391,0.931269,0.000000,0.000000
60,128,-127,-->,0.138976,0.512314,0.000000,0.000002,0.000000,0.000000,0.371125
60,128,-100,-->,0.086140,0.649525,0.000024,0.000093,0.000000,0.000000,0.340800
60,128,-75,-->,0.020949,0.816016,0.001233,0.004621,0.000066,0.000000,0.202291
60,128,-50,-->,0.002207,0.916409,0.000790,0.002166,0.001671,0.000000,0.026443
60,128,-25,-->,0.000011,0.984076,0.000131,0.000021,0.063939,0.000000,0.000184
60,128,0,-->,0.000082,0.991604,0.000517,0.000310,0.210828,0.000000,0.000000
60,128,25,-->,0.000002,0.979275,0.000485,0.000006,0.373339,0.000000,0.000000
60,128,50,-->,0.000001,0.969154,0.001168,0.000010,0.513346,0.000000,0.000000
60,128,75,-->,0.000002,0.955662,0.007447,0.000036,0.638987,0.000000,0.000000
60,128,100,-->,0.000004,0.909778,0.014775,0.000043,0.750122,0.000000,0.000000
60,128,128,-->,0.000011,0.906303,0.015249,0.000058,0.765221,0.000000,0.000000
80,-127,-127,-->,0.733712,0.000147,0.021908,0.000016,0.000000,0.050701,0.000066
80,-127,-100,-->,0.744182,0.000000,0.031668,0.000000,0.000000,0.107543,0.000000
80,-127,-75,-->,0.749067,0.000000,0.039385,0.000000,0.000000,0.187078,0.000004
80,-127,-50,-->,0.747703,0.000000,0.046894,0.000000,0.000000,0.285600,0.000007
80,-127,-25,-->,0.679385,0.000000,0.081135,0.000006,0.000000,0.403244,0.000007
80,-127,0,-->,0.400690,0.000000,0.147774,0.000000,0.000000,0.679678,0.000000
80,-127,25,-->,0.146031,0.000001,0.254682,0.000026,0.000000,0.846129,0.000000
80,-127,50,-->,0.086970,0.000006,0.542054,0.000033,0.000000,0.869963,0.000000
80,-127,75,-->,0.033602,0.000000,0.778257,0.000030,0.000000,0.884278,0.000000
80,-127,100,-->,0.007284,0.000007,0.912372,0.000044,0.000000,0.870165,0.000000
80,-127,128,-->,0.005026,0.000000,0.945859,0.000000,0.000000,0.818296,0.000000
80,-100,-127,-->,0.706856,0.001185,0.013674,0.000039,0.000000,0.019331,0.000538
80,-100,-100,-->,0.723688,0.000162,0.025957,0.000015,0.000000,0.056077,0.000066
80,-100,-75,-->,0.730110,0.000000,0.037681,0.000000,0.000000,0.121333,0.000000
80,-100,-50,-->,0.726739,0.000000,0.049361,0.000000,0.000000,0.222486,0.000000
80,-100,-25,-->,0.652794,0.000000,0.090028,0.000000,0.000000,0.355952,0.000000
80,-100,0,-->,0.356086,0.000000,0.169242,0.000000,0.000000,0.655575,0.000000
80,-100,25,-->,0.144965,0.000000,0.311702,0.000008,0.000000,0.776766,0.000000
80,-100,50,-->,0.081258,0.000000,0.614868,0.000010,0.000000,0.796601,0.000000
80,-100,75,-->,0.029308,0.000000,0.826240,0.000007,0.000000,0.809910,0.000000
80,-100,100,-->,0.007996,0.000000,0.934228,0.000006,0.000000,0.774989,0.000000
80,-100,128,-->,0.002700,0.000000,0.968108,0.000016,0.000046,0.722719,0.000000
80,-75,-127,-->,0.664218,0.009883,0.006051,0.000077,0.000000,0.004845,0.005111
80,-75,-100,-->,0.690312,0.001916,0.014932,0.000053,0.000000,0.015648,0.000805
80,-75,-75,-->,0.705792,0.000174,0.030824,0.000021,0.000000,0.054890,0.000067
80,-75,-50,-->,0.705345,0.000000,0.048282,0.000000,0.000000,0.140867,0.000000
80,-75,-25,-->,0.629613,0.000000,0.093673,0.000000,0.000000,0.277346,0.000000
80,-75,0,-->,0.321930,0.000000,0.191969,0.000000,0.000000,0.608091,0.000000
80,-75,25,-->,0.157884,0.000000,0.366627,0.000000,0.000000,0.681809,0.000000
80,-75,50,-->,0.084808,0.000000,0.664087,0.000000,0.000000,0.689673,0.000000
80,-75,75,-->,0.022193,0.000000,0.872243,0.000000,0.000000,0.705763,0.000000
80,-75,100,-->,0.003268,0.000022,0.971893,0.000097,0.000040,0.667463,0.000000
80,-75,128,-->,0.000389,0.000059,0.996557,0.000278,0.000026,0.623657,0.000000
80,-50,-127,-->,0.615543,0.028930,0.001173,0.000114,0.000000,0.000102,0.014079
80,-50,-100,-->,0.632742,0.016027,0.002819,0.000116,0.000000,0.001059,0.006023
80,-50,-75,-->,0.655157,0.005784,0.012117,0.000065,0.000000,0.006118,0.001354
80,-50,-50,-->,0.671642,0.000224,0.036983,0.000017,0.000000,0.041593,0.000039
80,-50,-25,-->,0.606044,0.000000,0.090153,0.000000,0.000000,0.162404,0.000000
80,-50,0,-->,0.358162,0.000000,0.213197,0.000000,0.000000,0.412051,0.000000
80,-50,25,-->,0.183707,0.000000,0.400721,0.000005,0.000000,0.500658,0.000000
80,-50,50,-->,0.091731,0.000019,0.668900,0.000068,0.000000,0.538440,0.000000
80,-50,75,-->,0.012574,0.000078,0.923289,0.000340,0.000001,0.567672,0.000000
80,-50,100,-->,0.001827,0.000254,0.986049,0.001234,0.000003,0.520081,0.000000
80,-50,128,-->,0.001079,0.000333,0.994886,0.001463,0.000065,0.471105,0.000000
80,-25,-127,-->,0.549497,0.068207,0.000092,0.000233,0.000000,0.000003,0.034551
80,-25,-100,-->,0.561328,0.056584,0.000191,0.000193,0.000000,0.000016,0.020584
80,-25,-75,-->,0.568755,0.043355,0.000564,0.000093,0.000000,0.000047,0.008930
80,-25,-50,-->,0.571677,0.019246,0.001894,0.000038,0.000000,0.000386,0.001810
80,-25,-25,-->,0.521421,0.000235,0.027528,0.000340,0.000000,0.010995,0.000001
80,-25,0,-->,0.346523,0.000930,0.193743,0.001508,0.000000,0.136417,0.000000
80,-25,25,-->,0.192766,0.007740,0.404192,0.020762,0.000000,0.212395,0.000000
80,-25,50,-->,0.105023,0.004283,0.632440,0.013960,0.000000,0.259003,0.000000
80,-25,75,-->,0.030236,0.004458,0.863903,0.014893,0.000000,0.312075,0.000000
80,-25,100,-->,0.011772,0.004907,0.998361,0.017120,0.000371,0.288010,0.000000
80,-25,128,-->,0.013719,0.006087,0.999068,0.020076,0.000551,0.245941,0.000000
80,0,-127,-->,0.450969,0.125323,0.000024,0.000177,0.000000,0.000000,0.083067
80,0,-100,-->,0.443292,0.125898,0.000018,0.000323,0.000000,0.000000,0.075184
80,0,-75,-->,0.429994,0.126944,0.000009,0.000564,0.000000,0.000000,0.064434
80,0,-50,-->,0.404114,0.127959,0.000032,0.000588,0.000000,0.000000,0.048132
80,0,-25,-->,0.315051,0.146161,0.000198,0.000416,0.000000,0.000000,0.022890
80,0,0,-->,0.111145,0.089346,0.082488,0.160217,0.000000,0.000000,0.000000
80,0,25,-->,0.052782,0.091019,0.362912,0.167016,0.000001,0.000000,0.000000
80,0,50,-->,0.039948,0.089255,0.624071,0.148369,0.000705,0.000000,0.000000
80,0,75,-->,0.040743,0.067665,0.844320,0.141859,0.015183,0.000000,0.000000
80,0,100,-->,0.034227,0.049357,0.999848,0.100795,0.033565,0.000014,0.000000
80,0,128,-->,0.026778,0.037635,0.999985,0.070483,0.028733,0.005303,0.000000
80,25,-127,-->,0.361179,0.156470,0.000022,0.000037,0.000000,0.000000,0.131920
80,25,-100,-->,0.334774,0.165597,0.000015,0.000028,0.000000,0.000000,0.133020
80,25,-75,-->,0.292866,0.189021,0.000014,0.000018,0.000000,0.000000,0.128013
80,25,-50,-->,0.217836,0.240731,0.000000,0.000004,0.000000,0.000000,0.108291
80,25,-25,-->,0.090128,0.347766,0.000017,0.000031,0.000000,0.000000,0.016379
80,25,0,-->,0.002138,0.352990,0.048825,0.009729,0.000010,0.000000,0.000000
80,25,25,-->,0.005257,0.256950,0.256269,0.012754,0.130083,0.000000,0.000000
80,25,50,-->,0.004410,0.172273,0.488980,0.013214,0.224711,0.000000,0.000000
80,25,75,-->,0.003654,0.083127,0.707925,0.012909,0.302899,0.000000,0.000000
80,25,100,-->,0.003396,0.013737,0.955691,0.013476,0.356337,0.000000,0.000000
80,25,128,-->,0.002819,0.007689,0.999964,0.010022,0.318430,0.000000,0.000000
80,50,-127,-->,0.278664,0.209147,0.000011,0.000013,0.000000,0.000000,0.150659
80,50,-100,-->,0.232616,0.248807,0.000000,0.000000,0.000000,0.000000,0.140304
80,50,-75,-->,0.174392,0.321735,0.000000,0.000000,0.000000,0.000000,0.103109
80,50,-50,-->,0.105977,0.422717,0.000068,0.000300,0.000000,0.000000,0.043366
80,50,-25,-->,0.014595,0.507174,0.003047,0.000492,0.000662,0.000000,0.001268
80,50,0,-->,0.000000,0.548891,0.071898,0.000006,0.025133,0.000000,0.000000
80,50,25,-->,0.000001,0.435285,0.185665,0.000015,0.226839,0.000000,0.000000
80,50,50,-->,0.000005,0.248881,0.273614,0.000020,0.453506,0.000000,0.000000
80,50,75,-->,0.000010,0.149288,0.509379,0.000034,0.573324,0.000000,0.000000
80,50,100,-->,0.000009,0.040221,0.814304,0.000052,0.674545,0.000000,0.000000
80,50,128,-->,0.000118,0.002528,0.981051,0.000538,0.660287,0.000000,0.000000
80,75,-127,-->,0.205729,0.295631,0.000000,0.000000,0.000000,0.000000,0.133065
80,75,-100,-->,0.155960,0.367339,0.000000,0.000003,0.000000,0.000000,0.098935
80,75,-75,-->,0.112140,0.445628,0.000025,0.000138,0.000000,0.000000,0.061155
80,75,-50,-->,0.051687,0.543592,0.000459,0.000778,0.000065,0.000000,0.020860
80,75,-25,-->,0.000586,0.638561,0.013315,0.000058,0.009924,0.000000,0.000280
80,75,0,-->,0.000000,0.661810,0.060379,0.000000,0.094930,0.000000,0.000000
80,75,25,-->,0.000000,0.590521,0.120192,0.000000,0.274618,0.000000,0.000000
80,75,50,-->,0.000000,0.441469,0.183386,0.000001,0.494347,0.000000,0.000000
80,75,75,-->,0.000000,0.250681,0.205025,0.000004,0.707320,0.000000,0.000000
80,75,100,-->,0.000000,0.132815,0.362761,0.000001,0.839550,0.000000,0.000000
80,75,128,-->,0.000000,0.073892,0.626372,0.000000,0.873207,0.000000,0.000000
80,100,-127,-->,0.149644,0.388605,0.000000,0.000005,0.000000,0.000000,0.100853
80,100,-100,-->,0.113433,0.459641,0.000004,0.000032,0.000000,0.000000,0.070867
80,100,-75,-->,0.073218,0.534988,0.000067,0.000261,0.000010,0.000000,0.041413
80,100,-50,-->,0.013602,0.648235,0.001151,0.000430,0.001175,0.000000,0.010424
80,100,-25,-->,0.000459,0.760394,0.015896,0.000005,0.035936,0.000000,0.000103
80,100,0,-->,0.000000,0.765122,0.035031,0.000008,0.149971,0.000000,0.000000
80,100,25,-->,0.000000,0.701574,0.073052,0.000000,0.322661,0.000000,0.000000
80,100,50,-->,0.000001,0.624558,0.112663,0.000017,0.493161,0.000000,0.000000
80,100,75,-->,0.000019,0.504595,0.136790,0.000091,0.647782,0.000000,0.000000
80,100,100,-->,0.000004,0.342430,0.137295,0.000031,0.808695,0.000000,0.000000
80,100,128,-->,0.000007,0.239875,0.159021,0.000087,0.894562,0.000000,0.000000
80,128,-127,-->,0.113673,0.469280,0.000000,0.000024,0.000000,0.000000,0.077743
80,128,-100,-->,0.080346,0.535004,0.000018,0.000107,0.000003,0.000000,0.054974
80,128,-75,-->,0.035541,0.621857,0.000281,0.000992,0.000294,0.000000,0.029338
80,128,-50,-->,0.002826,0.741750,0.003729,0.000152,0.009051,0.000000,0.002353
80,128,-25,-->,0.000040,0.838179,0.011404,0.000027,0.052529,0.000000,0.000033
80,128,0,-->,0.000007,0.817147,0.024870,0.000022,0.185868,0.000000,0.000000
80,128,25,-->,0.000000,0.764703,0.049602,0.000007,0.331631,0.000000,0.000000
80,128,50,-->,0.000000,0.710699,0.075788,0.000009,0.464772,0.000000,0.000000
80,128,75,-->,0.000012,0.637369,0.101889,0.000048,0.587118,0.000000,0.000000
80,128,100,-->,0.000015,0.535760,0.120404,0.000076,0.692713,0.000000,0.000000
80,128,128,-->,0.000007,0.434623,0.126705,0.000037,0.787795,0.000000,0.000000
100,-127,-127,-->,0.628475,0.000581,0.043318,0.000031,0.000000,0.036408,0.000000
100,-127,-100,-->,0.620849,0.000141,0.064770,0.000024,0.000000,0.079875,0.000000
100,-127,-75,-->,0.610040,0.000000,0.082819,0.000000,0.000000,0.128720,0.000000
100,-127,-50,-->,0.585728,0.000000,0.103991,0.000000,0.000000,0.192722,0.000000
100,-127,-25,-->,0.542918,0.000000,0.133720,0.000000,0.000000,0.290070,0.000000
100,-127,0,-->,0.379123,0.000000,0.190531,0.000000,0.000000,0.486446,0.000000
100,-127,25,-->,0.199750,0.000000,0.261807,0.000000,0.000000,0.623472,0.000000
100,-127,50,-->,0.147330,0.000000,0.451606,0.000000,0.000000,0.652027,0.000000
100,-127,75,-->,0.095799,0.000000,0.636465,0.000000,0.000000,0.665443,0.000000
100,-127,100,-->,0.053606,0.000000,0.765285,0.000000,0.000000,0.675682,0.000000
100,-127,128,-->,0.024368,0.000001,0.863129,0.000001,0.000000,0.663840,0.000000
100,-100,-127,-->,0.587269,0.001497,0.020450,0.000039,0.000000,0.013318,0.000000
100,-100,-100,-->,0.597195,0.000684,0.045804,0.000061,0.000000,0.035110,0.000000
100,-100,-75,-->,0.588729,0.000119,0.069852,0.000033,0.000000,0.073508,0.000000
100,-100,-50,-->,0.568528,0.000000,0.097439,0.000002,0.000000,0.124624,0.000000
100,-100,-25,-->,0.519760,0.000000,0.136149,0.000000,0.000000,0.226663,0.000000
100,-100,0,-->,0.389475,0.000000,0.202133,0.000000,0.000000,0.377301,0.000000
100,-100,25,-->,0.207173,0.000000,0.303131,0.000000,0.000000,0.524641,0.000000
100,-100,50,-->,0.144919,0.000000,0.515632,0.000000,0.000000,0.552469,0.000000
100,-100,75,-->,0.086635,0.000003,0.680883,0.000013,0.000000,0.577691,0.000000
100,-100,100,-->,0.039952,0.000015,0.809955,0.000055,0.000000,0.596506,0.000000
100,-100,128,-->,0.016678,0.000054,0.901715,0.000222,0.000000,0.574323,0.000000
100,-75,-127,-->,0.543726,0.004505,0.000527,0.000000,0.000000,0.000058,0.000236
100,-75,-100,-->,0.556275,0.000931,0.014279,0.000057,0.000000,0.005029,0.000000
100,-75,-75,-->,0.562254,0.000255,0.042620,0.000063,0.000000,0.017224,0.000000
100,-75,-50,-->,0.546714,0.000000,0.077121,0.000000,0.000000,0.058066,0.000000
100,-75,-25,-->,0.499069,0.000000,0.132042,0.000000,0.000000,0.147290,0.000000
100,-75,0,-->,0.384058,0.000000,0.203660,0.000000,0.000000,0.268548,0.000000
100,-75,25,-->,0.203438,0.000000,0.354150,0.000000,0.000000,0.413467,0.000000
100,-75,50,-->,0.134246,0.000000,0.566360,0.000000,0.000000,0.420734,0.000000
100,-75,75,-->,0.072001,0.000006,0.716767,0.000019,0.000000,0.453609,0.000000
100,-75,100,-->,0.028903,0.000000,0.843742,0.000010,0.000000,0.477012,0.000000
100,-75,128,-->,0.006983,0.000009,0.940833,0.000027,0.000000,0.471992,0.000000
100,-50,-127,-->,0.491658,0.017663,0.000389,0.000243,0.000000,0.000096,0.001010
100,-50,-100,-->,0.492317,0.009856,0.003064,0.000212,0.000000,0.000420,0.000208
100,-50,-75,-->,0.489721,0.003333,0.013447,0.000130,0.000000,0.001177,0.000039
100,-50,-50,-->,0.482863,0.000087,0.044672,0.000003,0.000000,0.010745,0.000000
100,-50,-25,-->,0.454328,0.000009,0.112625,0.000006,0.000000,0.057792,0.000000
100,-50,0,-->,0.346407,0.000000,0.197536,0.000000,0.000000,0.158696,0.000000
100,-50,25,-->,0.190936,0.000000,0.386699,0.000000,0.000000,0.256972,0.000000
100,-50,50,-->,0.113403,0.000007,0.590446,0.000022,0.000000,0.261879,0.000000
100,-50,75,-->,0.051358,0.000041,0.747690,0.000127,0.000000,0.279578,0.000000
100,-50,100,-->,0.015999,0.000084,0.878500,0.000250,0.000000,0.317036,0.000000
100,-50,128,-->,0.004304,0.000133,0.958097,0.000413,0.000000,0.311670,0.000000
100,-25,-127,-->,0.434454,0.072138,0.000123,0.000438,0.000000,0.000015,0.007353
100,-25,-100,-->,0.419514,0.052634,0.000111,0.000486,0.000000,0.000009,0.003592
100,-25,-75,-->,0.397325,0.032217,0.000614,0.000249,0.000000,0.000001,0.001146
100,-25,-50,-->,0.368281,0.015184,0.006771,0.000129,0.000000,0.000139,0.000042
100,-25,-25,-->,0.333723,0.000314,0.030388,0.000000,0.000000,0.000367,0.000000
100,-25,0,-->,0.260859,0.000013,0.159684,0.000013,0.000000,0.028092,0.000000
100,-25,25,-->,0.154772,0.000013,0.360926,0.000000,0.000000,0.076248,0.000000
100,-25,50,-->,0.088685,0.000109,0.573472,0.000004,0.000004,0.102523,0.000000
100,-25,75,-->,0.031550,0.000174,0.759528,0.000013,0.000016,0.109112,0.000000
100,-25,100,-->,0.005100,0.000048,0.918634,0.000136,0.000043,0.113970,0.000000
100,-25,128,-->,0.000626,0.000390,0.989324,0.000805,0.000518,0.112160,0.000000
100,0,-127,-->,0.371031,0.123865,0.000090,0.000305,0.000000,0.000000,0.026536
100,0,-100,-->,0.348187,0.118840,0.000031,0.000283,0.000000,0.000000,0.016329
100,0,-75,-->,0.315732,0.114348,0.000000,0.000162,0.000000,0.000000,0.007031
100,0,-50,-->,0.265241,0.097389,0.000126,0.000172,0.000000,0.000000,0.000530
100,0,-25,-->,0.176969,0.069591,0.000048,0.000172,0.000000,0.000000,0.000000
100,0,0,-->,0.000000,0.000020,0.000019,0.000000,0.000000,0.000000,0.000000
100,0,25,-->,0.000000,0.022336,0.260126,0.000000,0.000001,0.000000,0.000000
100,0,50,-->,0.000015,0.028490,0.503336,0.000000,0.000010,0.000000,0.000000
100,0,75,-->,0.000000,0.022545,0.724661,0.000000,0.010551,0.000000,0.000000
100,0,100,-->,0.000368,0.003071,0.892410,0.000015,0.015530,0.004090,0.000000
100,0,128,-->,0.000015,0.000122,0.980117,0.000000,0.021510,0.003005,0.000000
100,25,-127,-->,0.303977,0.163060,0.000057,0.000140,0.000000,0.000000,0.057072
100,25,-100,-->,0.269331,0.170855,0.000022,0.000058,0.000000,0.000000,0.048572
100,25,-75,-->,0.213848,0.188307,0.000015,0.000044,0.000000,0.000000,0.031655
100,25,-50,-->,0.131738,0.207867,0.000110,0.000195,0.000000,0.000000,0.005512
100,25,-25,-->,0.015122,0.216914,0.000251,0.000063,0.000000,0.000000,0.000002
100,25,0,-->,0.000000,0.228704,0.037417,0.000000,0.001380,0.000000,0.000000
100,25,25,-->,0.000000,0.215367,0.247715,0.000000,0.059740,0.000000,0.000000
100,25,50,-->,0.000000,0.158679,0.446242,0.000000,0.137996,0.000000,0.000000
100,25,75,-->,0.000000,0.100500,0.619944,0.000000,0.194705,0.000000,0.000000
100,25,100,-->,0.000000,0.037338,0.804017,0.000000,0.248474,0.000000,0.000000
100,25,128,-->,0.000000,0.002403,0.964907,0.000000,0.227753,0.000000,0.000000
100,50,-127,-->,0.237748,0.209434,0.000000,0.000015,0.000000,0.000000,0.072478
100,50,-100,-->,0.186687,0.236977,0.000000,0.000013,0.000000,0.000000,0.055366
100,50,-75,-->,0.114166,0.277716,0.000012,0.000018,0.000000,0.000000,0.022533
100,50,-50,-->,0.022547,0.311946,0.000226,0.000070,0.000000,0.000000,0.000329
100,50,-25,-->,0.001060,0.340124,0.013079,0.000063,0.000000,0.000000,0.000000
100,50,0,-->,0.000015,0.385724,0.085992,0.000015,0.018779,0.000000,0.000000
100,50,25,-->,0.000002,0.341929,0.192777,0.000002,0.120421,0.000000,0.000000
100,50,50,-->,0.000000,0.226805,0.331087,0.000000,0.244249,0.000000,0.000000
100,50,75,-->,0.000000,0.164545,0.499542,0.000000,0.313329,0.000000,0.000000
100,50,100,-->,0.000000,0.103970,0.653269,0.000000,0.387267,0.000000,0.000000
100,50,128,-->,0.000000,0.035910,0.823716,0.000000,0.432294,0.000000,0.000000
100,75,-127,-->,0.172454,0.274822,0.000000,0.000015,0.000000,0.000000,0.059842
100,75,-100,-->,0.108432,0.323659,0.000000,0.000030,0.000000,0.000000,0.023303
100,75,-75,-->,0.054098,0.361860,0.000099,0.000039,0.000000,0.000000,0.002229
100,75,-50,-->,0.016663,0.390413,0.002611,0.000174,0.000000,0.000000,0.000294
100,75,-25,-->,0.000660,0.445071,0.037515,0.000015,0.001136,0.000000,0.000000
100,75,0,-->,0.000000,0.481565,0.098430,0.000000,0.043514,0.000000,0.000000
100,75,25,-->,0.000000,0.434936,0.164605,0.000000,0.140407,0.000000,0.000000
100,75,50,-->,0.000000,0.316037,0.242893,0.000000,0.273526,0.000000,0.000000
100,75,75,-->,0.000000,0.211168,0.351536,0.000003,0.398833,0.000000,0.000000
100,75,100,-->,0.000000,0.165598,0.505226,0.000000,0.464313,0.000000,0.000000
100,75,128,-->,0.000000,0.104026,0.658321,0.000000,0.519143,0.000000,0.000000
100,100,-127,-->,0.109270,0.351694,0.000000,0.000015,0.000000,0.000000,0.028484
100,100,-100,-->,0.072737,0.389635,0.000022,0.000022,0.000000,0.000000,0.008514
100,100,-75,-->,0.039451,0.417958,0.000831,0.000324,0.000010,0.000000,0.001628
100,100,-50,-->,0.006880,0.470064,0.013055,0.000319,0.000815,0.000000,0.000021
100,100,-25,-->,0.000238,0.530739,0.049467,0.000000,0.008575,0.000000,0.000000
100,100,0,-->,0.000000,0.548537,0.093994,0.000000,0.070955,0.000000,0.000000
100,100,25,-->,0.000000,0.507193,0.138447,0.000015,0.156497,0.000000,0.000000
100,100,50,-->,0.000009,0.411620,0.198894,0.000018,0.280050,0.000000,0.000000
100,100,75,-->,0.000000,0.289238,0.245850,0.000003,0.421694,0.000000,0.000000
100,100,100,-->,0.000003,0.212590,0.337968,0.000014,0.518152,0.000000,0.000000
100,100,128,-->,0.000000,0.157852,0.478524,0.000008,0.576122,0.000000,0.000000
100,128,-127,-->,0.083885,0.413702,0.000000,0.000000,0.000000,0.000000,0.013360
100,128,-100,-->,0.058106,0.445862,0.000616,0.000150,0.000014,0.000000,0.000573
100,128,-75,-->,0.016126,0.490913,0.002157,0.000757,0.000247,0.000000,0.000473
100,128,-50,-->,0.000582,0.551364,0.024677,0.000031,0.006460,0.000000,0.000043
100,128,-25,-->,0.000026,0.599052,0.056486,0.000000,0.025819,0.000000,0.000000
100,128,0,-->,0.000000,0.596323,0.085742,0.000000,0.095801,0.000000,0.000000
100,128,25,-->,0.000000,0.568659,0.115122,0.000000,0.170092,0.000000,0.000000
100,128,50,-->,0.000000,0.497289,0.163896,0.000000,0.281747,0.000000,0.000000
100,128,75,-->,0.000000,0.399636,0.196406,0.000000,0.402221,0.000000,0.000000
100,128,100,-->,0.000000,0.292491,0.229626,0.000000,0.528866,0.000000,0.000000
100,128,128,-->,0.000000,0.216220,0.292332,0.000000,0.617655,0.000000,0.000000
-1,0,0,-->,0.966977,0.589827,0.432965,0.999825,0.000000,0.002348,0.000191
101,0,0,-->,0.000000,0.000020,0.000019,0.000000,0.000000,0.000000,0.000000
50,-130,0,-->,0.571912,0.000027,0.173294,0.001126,0.000000,0.992540,0.000000
50,130,0,-->,0.001196,0.993068,0.003679,0.004553,0.234799,0.000000,0.000000
50,0,-130,-->,0.913778,0.006711,0.000044,0.000059,0.000000,0.000000,0.312196
50,0,130,-->,0.121537,0.139306,1.000000,0.469707,0.004587,0.000080,0.000000
