0,-127,-127,-->,0.999830,0.178357,0.168725,0.588920,0.000000,0.007865,0.028025
0,-127,-100,-->,0.999771,0.178003,0.186926,0.613004,0.000000,0.017292,0.015229
0,-127,-75,-->,0.999920,0.175981,0.212425,0.635806,0.000000,0.048816,0.003193
0,-127,-50,-->,0.999719,0.165370,0.267003,0.643499,0.000000,0.231086,0.000007
0,-127,-25,-->,0.969115,0.146122,0.353522,0.654693,0.000000,0.617300,0.000000
0,-127,0,-->,0.801064,0.129256,0.472652,0.687101,0.000000,0.986135,0.000000
0,-127,25,-->,0.565138,0.129937,0.646494,0.703711,0.000000,0.991330,0.000000
0,-127,50,-->,0.500916,0.145399,0.745083,0.726083,0.000000,0.968934,0.000000
0,-127,75,-->,0.495391,0.155128,0.767511,0.742971,0.000000,0.954404,0.000000
0,-127,100,-->,0.497449,0.161378,0.776178,0.752454,0.000000,0.943369,0.000000
0,-127,128,-->,0.503407,0.165891,0.775879,0.760042,0.000000,0.940161,0.000000
0,-100,-127,-->,0.999881,0.179078,0.162746,0.581379,0.000000,0.004849,0.033850
0,-100,-100,-->,0.999761,0.179466,0.180194,0.607204,0.000000,0.013220,0.020912
0,-100,-75,-->,0.999850,0.178502,0.203278,0.633092,0.000000,0.033160,0.007708
0,-100,-50,-->,0.999847,0.170368,0.253279,0.648484,0.000000,0.172277,0.000293
0,-100,-25,-->,0.973131,0.154122,0.353555,0.671946,0.000000,0.566663,0.000000
0,-100,0,-->,0.799233,0.143187,0.501162,0.723852,0.000000,0.984555,0.000000
0,-100,25,-->,0.560249,0.142199,0.664197,0.731585,0.000000,0.987261,0.000000
0,-100,50,-->,0.502183,0.155507,0.756652,0.745936,0.000000,0.957443,0.000000
0,-100,75,-->,0.499391,0.166534,0.784108,0.759236,0.000000,0.934979,0.000000
0,-100,100,-->,0.502747,0.171756,0.790013,0.766283,0.000000,0.928931,0.000000
0,-100,128,-->,0.509117,0.175593,0.788388,0.772523,0.000000,0.930339,0.000000
0,-75,-127,-->,0.999959,0.180191,0.154523,0.569129,0.000000,0.001600,0.045610
0,-75,-100,-->,0.999814,0.181437,0.171053,0.598166,0.000000,0.007989,0.029463
0,-75,-75,-->,0.999783,0.181541,0.191671,0.627425,0.000000,0.017952,0.014956
0,-75,-50,-->,0.999943,0.177411,0.232518,0.654042,0.000000,0.098640,0.002390
0,-75,-25,-->,0.980683,0.171485,0.355674,0.709229,0.000000,0.485098,0.000431
0,-75,0,-->,0.819776,0.165389,0.534878,0.765317,0.000000,0.968969,0.000000
0,-75,25,-->,0.560621,0.160755,0.691773,0.763777,0.000000,0.978135,0.000000
0,-75,50,-->,0.506978,0.171821,0.783398,0.767676,0.000000,0.934194,0.000000
0,-75,75,-->,0.506000,0.180788,0.804967,0.777169,0.000000,0.915872,0.000000
0,-75,100,-->,0.510095,0.185580,0.809658,0.783597,0.000000,0.912965,0.000000
0,-75,128,-->,0.510127,0.187650,0.814576,0.785788,0.000000,0.909391,0.000000
0,-50,-127,-->,0.999972,0.182091,0.141955,0.541600,0.000000,0.000336,0.083669
0,-50,-100,-->,0.999939,0.184009,0.158744,0.582524,0.000000,0.002111,0.045258
0,-50,-75,-->,0.999750,0.185132,0.178020,0.615689,0.000000,0.010030,0.027879
0,-50,-50,-->,0.999958,0.191130,0.202601,0.665305,0.000000,0.022758,0.013902
0,-50,-25,-->,0.991491,0.201754,0.343541,0.757551,0.000000,0.339007,0.001845
0,-50,0,-->,0.880348,0.210001,0.582834,0.827658,0.000000,0.945895,0.000000
0,-50,25,-->,0.585381,0.192574,0.746750,0.801422,0.000000,0.957102,0.000000
0,-50,50,-->,0.517714,0.195502,0.821414,0.796357,0.000000,0.906086,0.000000
0,-50,75,-->,0.517845,0.205242,0.835257,0.805767,0.000009,0.873154,0.000000
0,-50,100,-->,0.520115,0.210408,0.834205,0.810733,0.000013,0.851701,0.000000
0,-50,128,-->,0.525800,0.214240,0.829475,0.815402,0.000013,0.845639,0.000000
0,-25,-127,-->,0.999948,0.181489,0.127423,0.504454,0.000000,0.000178,0.131338
0,-25,-100,-->,0.999965,0.187559,0.142438,0.546931,0.000000,0.000273,0.096826
0,-25,-75,-->,0.999928,0.191383,0.159686,0.591970,0.000000,0.001905,0.060148
0,-25,-50,-->,0.999976,0.221061,0.180555,0.673819,0.000000,0.000577,0.072019
0,-25,-25,-->,0.997413,0.268736,0.279471,0.796714,0.000000,0.093020,0.089961
0,-25,0,-->,0.959901,0.356292,0.640604,0.929094,0.000000,0.710012,0.000000
0,-25,25,-->,0.672749,0.291688,0.744830,0.875752,0.000045,0.743530,0.000000
0,-25,50,-->,0.543379,0.263097,0.821606,0.848757,0.000639,0.686404,0.000000
0,-25,75,-->,0.537320,0.269787,0.825299,0.851268,0.000684,0.646969,0.000000
0,-25,100,-->,0.538765,0.268784,0.825784,0.852137,0.000627,0.648141,0.000000
0,-25,128,-->,0.545413,0.263696,0.824333,0.852702,0.000542,0.671936,0.000000
0,0,-127,-->,0.999938,0.178224,0.109610,0.456820,0.000000,0.000062,0.190111
0,0,-100,-->,0.999924,0.186770,0.118736,0.486014,0.000000,0.000088,0.177896
0,0,-75,-->,0.999953,0.206190,0.132368,0.531703,0.000000,0.000063,0.177118
0,0,-50,-->,0.999891,0.273736,0.143719,0.588668,0.000000,0.000000,0.364319
0,0,-25,-->,0.998115,0.367052,0.195066,0.790943,0.000000,0.000000,0.458229
0,0,0,-->,0.967014,0.590482,0.431878,0.999982,0.000000,0.000001,0.000025
0,0,25,-->,0.678082,0.570993,0.627880,0.947842,0.000161,0.003419,0.000016
0,0,50,-->,0.496666,0.513018,0.765428,0.907530,0.001663,0.014339,0.000002
0,0,75,-->,0.494004,0.487909,0.775577,0.901545,0.003089,0.063142,0.000015
0,0,100,-->,0.505352,0.466374,0.777872,0.898874,0.002916,0.130128,0.000015
0,0,128,-->,0.528990,0.439671,0.776029,0.897429,0.001885,0.230597,0.000015
0,25,-127,-->,0.999962,0.169735,0.091454,0.403929,0.000000,0.000007,0.246537
0,25,-100,-->,0.999918,0.175219,0.093282,0.414189,0.000000,0.000007,0.258492
0,25,-75,-->,0.995187,0.178256,0.087488,0.412044,0.000000,0.000058,0.423132
0,25,-50,-->,0.932501,0.227683,0.074098,0.453125,0.000000,0.000000,0.839918
0,25,-25,-->,0.580054,0.632740,0.115562,0.642765,0.000024,0.000003,0.940533
0,25,0,-->,0.358740,0.905647,0.278033,0.832490,0.000033,0.000000,0.145420
0,25,25,-->,0.337090,0.905686,0.526299,0.835570,0.377512,0.000004,0.041864
0,25,50,-->,0.328152,0.895924,0.654473,0.840265,0.565010,0.000880,0.000036
0,25,75,-->,0.352788,0.861308,0.700229,0.856341,0.570737,0.001157,0.000044
0,25,100,-->,0.370525,0.828280,0.719035,0.864887,0.532424,0.001282,0.000039
0,25,128,-->,0.395551,0.789126,0.737539,0.876358,0.477813,0.001142,0.000039
0,50,-127,-->,0.999664,0.155112,0.075938,0.352005,0.000000,0.000077,0.303556
0,50,-100,-->,0.999372,0.151946,0.072495,0.342883,0.000000,0.000147,0.345749
0,50,-75,-->,0.930072,0.150606,0.044252,0.280409,0.000003,0.000001,0.752501
0,50,-50,-->,0.472510,0.523129,0.018115,0.294399,0.000002,0.000000,0.997420
0,50,-25,-->,0.186307,0.913662,0.057057,0.382532,0.000127,0.000000,0.888456
0,50,0,-->,0.233757,0.969194,0.228994,0.717392,0.007253,0.000000,0.026523
0,50,25,-->,0.219612,0.968487,0.343830,0.718649,0.202149,0.000000,0.007194
0,50,50,-->,0.216337,0.963327,0.425048,0.725024,0.374255,0.000390,0.000040
0,50,75,-->,0.238509,0.949403,0.478057,0.755948,0.430896,0.000445,0.000041
0,50,100,-->,0.249741,0.942859,0.502467,0.771147,0.452403,0.000545,0.000036
0,50,128,-->,0.260042,0.938256,0.520044,0.783951,0.458421,0.000669,0.000034
0,75,-127,-->,0.998886,0.130789,0.060182,0.289147,0.000000,0.000209,0.371394
0,75,-100,-->,0.990084,0.097080,0.041997,0.223566,0.000000,0.000092,0.583974
0,75,-75,-->,0.580343,0.359035,0.004105,0.064205,0.000643,0.000010,0.981872
0,75,-50,-->,0.126492,0.829588,0.007908,0.089386,0.000186,0.000000,0.961186
0,75,-25,-->,0.123704,0.987217,0.075321,0.324964,0.005177,0.000000,0.540455
0,75,0,-->,0.163336,0.996173,0.216407,0.585207,0.078843,0.000000,0.013857
0,75,25,-->,0.145131,0.995389,0.289281,0.581641,0.285868,0.000000,0.000048
0,75,50,-->,0.145886,0.993861,0.312793,0.592772,0.373914,0.000012,0.000005
0,75,75,-->,0.163450,0.988697,0.338641,0.631427,0.363715,0.000108,0.000035
0,75,100,-->,0.174204,0.984746,0.353941,0.652840,0.358727,0.000112,0.000023
0,75,128,-->,0.182197,0.981510,0.364392,0.666943,0.351247,0.000138,0.000019
0,100,-127,-->,0.993618,0.098139,0.040435,0.205105,0.000000,0.000118,0.469088
0,100,-100,-->,0.751945,0.151481,0.007359,0.042753,0.000155,0.000001,0.892421
0,100,-75,-->,0.217545,0.631400,0.002060,0.014074,0.001227,0.000000,0.952708
0,100,-50,-->,0.044380,0.965717,0.016942,0.088066,0.000777,0.000000,0.702864
0,100,-25,-->,0.089968,0.996672,0.105293,0.324698,0.019288,0.000000,0.270239
0,100,0,-->,0.132081,0.999844,0.198871,0.519180,0.097666,0.000000,0.002570
0,100,25,-->,0.125822,0.999468,0.248632,0.527981,0.241144,0.000000,0.000219
0,100,50,-->,0.120822,0.999348,0.263361,0.526990,0.335018,0.000000,0.000019
0,100,75,-->,0.119857,0.999203,0.269877,0.529026,0.371101,0.000000,0.000015
0,100,100,-->,0.124079,0.998617,0.279468,0.541604,0.381550,0.000000,0.000004
0,100,128,-->,0.128917,0.998001,0.287211,0.554059,0.379704,0.000000,0.000004
0,128,-127,-->,0.922277,0.030983,0.006474,0.041824,0.000004,0.000000,0.768024
0,128,-100,-->,0.223179,0.470289,0.000809,0.006241,0.000095,0.000000,0.971190
0,128,-75,-->,0.015964,0.944128,0.004119,0.021796,0.000260,0.000000,0.758793
0,128,-50,-->,0.030718,0.994805,0.030717,0.100636,0.006467,0.000000,0.550113
0,128,-25,-->,0.104570,0.997919,0.133870,0.398759,0.027691,0.000000,0.139590
0,128,0,-->,0.126207,0.999939,0.193488,0.504845,0.097864,0.000000,0.000351
0,128,25,-->,0.123279,0.999879,0.231780,0.514168,0.194635,0.000000,0.000173
0,128,50,-->,0.120914,0.999737,0.248438,0.518165,0.265732,0.000000,0.000031
0,128,75,-->,0.118347,0.999796,0.250661,0.514877,0.294642,0.000000,0.000031
0,128,100,-->,0.118792,0.999706,0.253731,0.517602,0.305841,0.000000,0.000031
0,128,128,-->,0.119921,0.999588,0.255955,0.521019,0.307942,0.000000,0.000031
20,-127,-127,-->,0.999032,0.105486,0.093442,0.337028,0.000000,0.023316,0.055262
20,-127,-100,-->,0.999552,0.103184,0.116201,0.373468,0.000000,0.060500,0.026327
20,-127,-75,-->,0.999849,0.097896,0.146514,0.396999,0.000000,0.125519,0.005719
20,-127,-50,-->,0.998756,0.088238,0.173713,0.399109,0.000000,0.282140,0.000041
20,-127,-25,-->,0.970040,0.069004,0.194701,0.401557,0.000000,0.683524,0.000002
20,-127,0,-->,0.777356,0.062483,0.330561,0.480193,0.000000,0.994945,0.000000
20,-127,25,-->,0.495805,0.061858,0.605904,0.519986,0.000000,0.999151,0.000000
20,-127,50,-->,0.318915,0.075384,0.823054,0.512302,0.000000,0.987311,0.000000
20,-127,75,-->,0.283766,0.081008,0.884902,0.506973,0.000000,0.959177,0.000000
20,-127,100,-->,0.279669,0.087021,0.908553,0.517121,0.000000,0.943323,0.000000
20,-127,128,-->,0.280178,0.089863,0.916741,0.522913,0.000000,0.936729,0.000000
20,-100,-127,-->,0.998930,0.106929,0.082565,0.314287,0.000000,0.009629,0.076040
20,-100,-100,-->,0.999424,0.106287,0.101947,0.355865,0.000000,0.033993,0.044443
20,-100,-75,-->,0.999681,0.102232,0.129378,0.388353,0.000000,0.083567,0.016393
20,-100,-50,-->,0.999818,0.094007,0.166230,0.404372,0.000000,0.192443,0.000806
20,-100,-25,-->,0.979360,0.081830,0.210927,0.438719,0.000000,0.614326,0.000000
20,-100,0,-->,0.791432,0.071140,0.341474,0.508149,0.000000,0.993670,0.000000
20,-100,25,-->,0.483065,0.072422,0.641509,0.548855,0.000000,0.998535,0.000000
20,-100,50,-->,0.317354,0.089061,0.866593,0.540918,0.000000,0.967742,0.000000
20,-100,75,-->,0.280544,0.091936,0.923029,0.527160,0.000002,0.930373,0.000000
20,-100,100,-->,0.277658,0.097489,0.944312,0.535642,0.000005,0.910321,0.000000
20,-100,128,-->,0.279306,0.099806,0.949279,0.540502,0.000005,0.904580,0.000000
20,-75,-127,-->,0.998801,0.107515,0.073189,0.290682,0.000000,0.001835,0.099035
20,-75,-100,-->,0.999187,0.108708,0.087689,0.330001,0.000000,0.013401,0.068655
20,-75,-75,-->,0.999551,0.106666,0.109067,0.368734,0.000000,0.044015,0.036825
20,-75,-50,-->,0.999934,0.106980,0.151233,0.423930,0.000000,0.106512,0.007258
20,-75,-25,-->,0.992821,0.106257,0.230800,0.496137,0.000000,0.477799,0.000000
20,-75,0,-->,0.825153,0.088538,0.359061,0.555672,0.000000,0.990420,0.000000
20,-75,25,-->,0.465295,0.094018,0.705962,0.598598,0.000000,0.993456,0.000000
20,-75,50,-->,0.320902,0.110450,0.925141,0.581913,0.000000,0.917789,0.000000
20,-75,75,-->,0.288419,0.110426,0.964933,0.562483,0.000003,0.860136,0.000000
20,-75,100,-->,0.288653,0.114896,0.974055,0.568642,0.000002,0.825223,0.000000
20,-75,128,-->,0.291013,0.116527,0.974941,0.572549,0.000000,0.818982,0.000000
20,-50,-127,-->,0.997950,0.104512,0.064885,0.263076,0.000000,0.000105,0.128620
20,-50,-100,-->,0.998972,0.109808,0.075404,0.300312,0.000000,0.001910,0.097022
20,-50,-75,-->,0.999373,0.110281,0.090253,0.338911,0.000000,0.014734,0.066077
20,-50,-50,-->,0.999945,0.132435,0.128541,0.450735,0.000000,0.025891,0.035687
20,-50,-25,-->,0.999588,0.145803,0.241593,0.577988,0.000000,0.242081,0.000208
20,-50,0,-->,0.872758,0.117261,0.389303,0.628461,0.000000,0.967496,0.000000
20,-50,25,-->,0.442147,0.129837,0.789945,0.675131,0.000000,0.972742,0.000000
20,-50,50,-->,0.335840,0.137538,0.961900,0.635166,0.000000,0.796107,0.000000
20,-50,75,-->,0.313082,0.135234,0.982623,0.614159,0.000000,0.722164,0.000000
20,-50,100,-->,0.313428,0.137939,0.985410,0.617491,0.000000,0.690939,0.000000
20,-50,128,-->,0.315519,0.139145,0.984960,0.620670,0.000000,0.687617,0.000000
20,-25,-127,-->,0.996742,0.097511,0.056369,0.231159,0.000000,0.000015,0.163900
20,-25,-100,-->,0.997546,0.103721,0.062810,0.256733,0.000000,0.000026,0.143864
20,-25,-75,-->,0.998379,0.113512,0.071824,0.294904,0.000000,0.000241,0.135607
20,-25,-50,-->,0.999717,0.156920,0.097271,0.408251,0.000000,0.000038,0.179594
20,-25,-25,-->,0.979064,0.198894,0.188103,0.626263,0.000000,0.043691,0.068726
20,-25,0,-->,0.730865,0.185394,0.433292,0.738634,0.000000,0.462694,0.000000
20,-25,25,-->,0.426003,0.191256,0.845127,0.751863,0.000000,0.627313,0.000000
20,-25,50,-->,0.359466,0.179694,0.952926,0.713862,0.000000,0.543593,0.000000
20,-25,75,-->,0.331178,0.171465,0.967407,0.684298,0.000000,0.486278,0.000000
20,-25,100,-->,0.326452,0.172832,0.968113,0.682710,0.000000,0.462382,0.000000
20,-25,128,-->,0.328169,0.172611,0.967631,0.684065,0.000000,0.465488,0.000000
20,0,-127,-->,0.994211,0.086360,0.046735,0.193644,0.000000,0.000085,0.204818
20,0,-100,-->,0.995022,0.089713,0.048862,0.203247,0.000000,0.000076,0.202206
20,0,-75,-->,0.997143,0.098224,0.047982,0.216023,0.000000,0.000145,0.296020
20,0,-50,-->,0.998151,0.128170,0.051792,0.275084,0.000000,0.000026,0.511436
20,0,-25,-->,0.809653,0.288705,0.124813,0.555807,0.000000,0.000000,0.400710
20,0,0,-->,0.467480,0.336219,0.260250,0.824563,0.000000,0.000000,0.000001
20,0,25,-->,0.314178,0.349736,0.807518,0.805005,0.000061,0.000000,0.000000
20,0,50,-->,0.286022,0.309371,0.916830,0.782865,0.000117,0.001252,0.000000
20,0,75,-->,0.279684,0.292954,0.923400,0.773391,0.000092,0.007449,0.000000
20,0,100,-->,0.278452,0.285320,0.926580,0.768150,0.000061,0.019123,0.000000
20,0,128,-->,0.282082,0.280172,0.927833,0.765986,0.000056,0.038946,0.000000
20,25,-127,-->,0.990837,0.070272,0.035134,0.147048,0.000000,0.000084,0.252227
20,25,-100,-->,0.987375,0.067447,0.031684,0.136235,0.000000,0.000058,0.303803
20,25,-75,-->,0.958817,0.041033,0.015406,0.077985,0.000000,0.000039,0.622676
20,25,-50,-->,0.704053,0.130913,0.025373,0.152073,0.000000,0.000000,0.813042
20,25,-25,-->,0.391633,0.472744,0.086744,0.400259,0.000000,0.000000,0.659202
20,25,0,-->,0.251595,0.776950,0.213710,0.714855,0.000033,0.000000,0.017355
20,25,25,-->,0.223921,0.745284,0.575905,0.738245,0.510160,0.000000,0.000054
20,25,50,-->,0.204287,0.614650,0.768712,0.742012,0.740847,0.000125,0.000005
20,25,75,-->,0.197509,0.550439,0.814047,0.733735,0.726087,0.000152,0.000000
20,25,100,-->,0.202891,0.518338,0.839913,0.734591,0.664664,0.000146,0.000000
20,25,128,-->,0.209932,0.505142,0.851278,0.738944,0.613465,0.000158,0.000000
20,50,-127,-->,0.986908,0.050562,0.022507,0.095767,0.000000,0.000020,0.305969
20,50,-100,-->,0.961497,0.033359,0.011270,0.053969,0.000000,0.000000,0.558616
20,50,-75,-->,0.684816,0.068608,0.000522,0.003949,0.000004,0.000000,0.907822
20,50,-50,-->,0.178591,0.338387,0.003731,0.024948,0.000003,0.000000,0.930172
20,50,-25,-->,0.089790,0.820809,0.025023,0.136151,0.000108,0.000000,0.751614
20,50,0,-->,0.151573,0.998895,0.171596,0.558502,0.005227,0.000000,0.001664
20,50,25,-->,0.129855,0.999017,0.285473,0.560173,0.380226,0.000000,0.000043
20,50,50,-->,0.116088,0.990329,0.311512,0.559960,0.679441,0.000012,0.000000
20,50,75,-->,0.111600,0.969211,0.326749,0.560085,0.769083,0.000023,0.000002
20,50,100,-->,0.119083,0.906727,0.391717,0.585423,0.820220,0.000043,0.000000
20,50,128,-->,0.128127,0.857321,0.450263,0.610101,0.839987,0.000072,0.000000
20,75,-127,-->,0.963739,0.030006,0.010804,0.046761,0.000000,0.000000,0.431738
20,75,-100,-->,0.756092,0.056318,0.000964,0.005931,0.000009,0.000000,0.863214
20,75,-75,-->,0.247633,0.324926,0.000220,0.001505,0.000019,0.000000,0.924110
20,75,-50,-->,0.041983,0.785936,0.001503,0.008475,0.000033,0.000000,0.779522
20,75,-25,-->,0.018680,0.979042,0.021207,0.060433,0.008542,0.000000,0.519926
20,75,0,-->,0.090464,0.999851,0.139135,0.367783,0.077721,0.000000,0.000162
20,75,25,-->,0.078198,0.999802,0.177903,0.364427,0.290224,0.000000,0.000014
20,75,50,-->,0.069840,0.998459,0.189860,0.369232,0.514460,0.000000,0.000000
20,75,75,-->,0.064447,0.994535,0.185705,0.365295,0.630567,0.000016,0.000023
20,75,100,-->,0.070664,0.992073,0.204987,0.397152,0.662261,0.000007,0.000027
20,75,128,-->,0.078820,0.991432,0.228159,0.432416,0.662767,0.000006,0.000038
20,100,-127,-->,0.895843,0.021246,0.000449,0.003356,0.000001,0.000000,0.781505
20,100,-100,-->,0.335843,0.247125,0.000119,0.000982,0.000020,0.000000,0.931647
20,100,-75,-->,0.055525,0.712265,0.000523,0.003233,0.000021,0.000000,0.761076
20,100,-50,-->,0.010212,0.955862,0.005933,0.015182,0.003147,0.000000,0.469150
20,100,-25,-->,0.042016,0.990969,0.062712,0.154520,0.036245,0.000000,0.115517
20,100,0,-->,0.054358,0.998247,0.100603,0.220247,0.132352,0.000000,0.000064
20,100,25,-->,0.051030,0.999021,0.121783,0.237249,0.267298,0.000000,0.000022
20,100,50,-->,0.049032,0.999402,0.132343,0.254968,0.411512,0.000000,0.000004
20,100,75,-->,0.046872,0.998489,0.132461,0.262655,0.517748,0.000000,0.000003
20,100,100,-->,0.045653,0.997086,0.131458,0.265945,0.572576,0.000000,0.000003
20,100,128,-->,0.045809,0.996274,0.132988,0.271316,0.596626,0.000000,0.000001
20,128,-127,-->,0.449340,0.166021,0.000058,0.000589,0.000030,0.000000,0.944406
20,128,-100,-->,0.072304,0.675927,0.000215,0.001497,0.000004,0.000000,0.752104
20,128,-75,-->,0.011237,0.937325,0.003435,0.008931,0.001758,0.000000,0.431613
20,128,-50,-->,0.025549,0.979962,0.034993,0.086093,0.019398,0.000000,0.203139
20,128,-25,-->,0.049483,0.994947,0.076847,0.184100,0.054399,0.000000,0.041447
20,128,0,-->,0.053890,0.998044,0.100750,0.219223,0.136765,0.000000,0.000064
20,128,25,-->,0.051632,0.998832,0.118962,0.233770,0.236377,0.000000,0.000026
20,128,50,-->,0.050286,0.999383,0.128415,0.247796,0.339469,0.000000,0.000013
20,128,75,-->,0.049358,0.999414,0.133725,0.257304,0.415578,0.000000,0.000002
20,128,100,-->,0.048872,0.999118,0.135310,0.262071,0.456002,0.000000,0.000003
20,128,128,-->,0.049041,0.998911,0.136238,0.265967,0.474544,0.000000,0.000003
40,-127,-127,-->,0.992707,0.030456,0.034096,0.080263,0.000000,0.071630,0.038031
40,-127,-100,-->,0.994122,0.029183,0.044931,0.094878,0.000000,0.116387,0.011061
40,-127,-75,-->,0.992679,0.025416,0.049142,0.095891,0.000000,0.217361,0.000446
40,-127,-50,-->,0.996039,0.013898,0.032952,0.062709,0.000000,0.469528,0.000051
40,-127,-25,-->,0.910946,0.007643,0.057953,0.065964,0.000000,0.851154,0.000003
40,-127,0,-->,0.681650,0.007172,0.246514,0.124218,0.000000,0.998051,0.000000
40,-127,25,-->,0.449137,0.008798,0.536823,0.187648,0.000000,0.999965,0.000000
40,-127,50,-->,0.263068,0.014529,0.717534,0.206608,0.000008,0.998254,0.000000
40,-127,75,-->,0.147167,0.019095,0.851626,0.205459,0.000006,0.983187,0.000000
40,-127,100,-->,0.107773,0.023352,0.909073,0.210135,0.000006,0.952819,0.000000
40,-127,128,-->,0.098866,0.026292,0.931108,0.222587,0.000001,0.936034,0.000000
40,-100,-127,-->,0.990373,0.030742,0.030445,0.075032,0.000000,0.056047,0.052300
40,-100,-100,-->,0.993475,0.030415,0.039056,0.087997,0.000000,0.087532,0.026004
40,-100,-75,-->,0.993837,0.027907,0.048916,0.098769,0.000000,0.156331,0.003449
40,-100,-50,-->,0.995752,0.020714,0.046183,0.089843,0.000000,0.394254,0.000121
40,-100,-25,-->,0.922808,0.010576,0.062999,0.086869,0.000000,0.829667,0.000003
40,-100,0,-->,0.684890,0.008857,0.260331,0.151573,0.000000,0.999280,0.000000
40,-100,25,-->,0.428428,0.011875,0.563752,0.229690,0.000000,0.999982,0.000000
40,-100,50,-->,0.227542,0.020766,0.770844,0.248473,0.000004,0.995587,0.000000
40,-100,75,-->,0.130341,0.026714,0.896867,0.244783,0.000006,0.961978,0.000000
40,-100,100,-->,0.096704,0.029607,0.948143,0.236286,0.000000,0.914731,0.000000
40,-100,128,-->,0.096425,0.032613,0.963530,0.244444,0.000003,0.884370,0.000000
40,-75,-127,-->,0.988003,0.030637,0.026418,0.069073,0.000000,0.039120,0.069209
40,-75,-100,-->,0.991334,0.031285,0.032416,0.079030,0.000000,0.060018,0.047450
40,-75,-75,-->,0.993806,0.032087,0.045024,0.099689,0.000000,0.099104,0.019709
40,-75,-50,-->,0.996165,0.033881,0.065999,0.138137,0.000000,0.261927,0.000987
40,-75,-25,-->,0.945310,0.017584,0.071010,0.128535,0.000000,0.766223,0.000005
40,-75,0,-->,0.646497,0.018758,0.259389,0.214558,0.000000,0.988966,0.000000
40,-75,25,-->,0.370160,0.021350,0.610468,0.289913,0.000000,0.996564,0.000000
40,-75,50,-->,0.185376,0.033788,0.857233,0.311505,0.000001,0.980800,0.000000
40,-75,75,-->,0.128183,0.039472,0.947683,0.295260,0.000003,0.902255,0.000000
40,-75,100,-->,0.113797,0.040738,0.977946,0.277287,0.000002,0.828184,0.000000
40,-75,128,-->,0.117424,0.042637,0.984841,0.278218,0.000000,0.789142,0.000000
40,-50,-127,-->,0.986157,0.030383,0.022117,0.063329,0.000000,0.019341,0.091001
40,-50,-100,-->,0.987676,0.031006,0.025854,0.069018,0.000000,0.034444,0.073715
40,-50,-75,-->,0.992160,0.040543,0.038345,0.104087,0.000000,0.039003,0.060390
40,-50,-50,-->,0.995505,0.057961,0.073094,0.194245,0.000000,0.076922,0.026505
40,-50,-25,-->,0.946742,0.050962,0.137037,0.254072,0.000000,0.423096,0.000094
40,-50,0,-->,0.601301,0.064560,0.286385,0.340248,0.000000,0.754380,0.000000
40,-50,25,-->,0.287913,0.071806,0.645997,0.400671,0.000000,0.852055,0.000000
40,-50,50,-->,0.178118,0.063848,0.968005,0.402618,0.000000,0.861386,0.000000
40,-50,75,-->,0.160847,0.060781,0.988814,0.362729,0.000000,0.756979,0.000000
40,-50,100,-->,0.152209,0.059339,0.994369,0.339174,0.000001,0.677869,0.000000
40,-50,128,-->,0.152614,0.060637,0.996240,0.336778,0.000000,0.632517,0.000000
40,-25,-127,-->,0.981100,0.029052,0.016921,0.055344,0.000000,0.002006,0.127569
40,-25,-100,-->,0.982146,0.030877,0.019195,0.060806,0.000000,0.006558,0.120331
40,-25,-75,-->,0.983573,0.042392,0.023640,0.085417,0.000000,0.000859,0.164242
40,-25,-50,-->,0.976418,0.066234,0.034698,0.137020,0.000000,0.000000,0.200201
40,-25,-25,-->,0.825271,0.124423,0.132789,0.381636,0.000000,0.048138,0.043445
40,-25,0,-->,0.565472,0.119344,0.339361,0.480547,0.000000,0.289279,0.000000
40,-25,25,-->,0.332118,0.123483,0.667495,0.512920,0.000000,0.434970,0.000000
40,-25,50,-->,0.238132,0.114181,0.981495,0.512074,0.000000,0.467254,0.000000
40,-25,75,-->,0.215360,0.105809,0.999473,0.480115,0.000001,0.427492,0.000000
40,-25,100,-->,0.199162,0.098487,0.999639,0.450049,0.000001,0.398078,0.000000
40,-25,128,-->,0.191471,0.096496,0.999715,0.438154,0.000047,0.371442,0.000000
40,0,-127,-->,0.963872,0.024089,0.011625,0.040115,0.000000,0.000006,0.194085
40,0,-100,-->,0.962352,0.024537,0.011081,0.039638,0.000000,0.000006,0.229873
40,0,-75,-->,0.931577,0.019222,0.004294,0.017493,0.000000,0.000000,0.384567
40,0,-50,-->,0.787403,0.052924,0.005080,0.021433,0.000000,0.000000,0.478542
40,0,-25,-->,0.584184,0.245351,0.077190,0.298087,0.000000,0.000000,0.265567
40,0,0,-->,0.255861,0.214490,0.179307,0.638988,0.000000,0.000000,0.000000
40,0,25,-->,0.200799,0.237202,0.617909,0.617987,0.000039,0.000000,0.000000
40,0,50,-->,0.176145,0.210531,0.949712,0.613943,0.012349,0.000000,0.000000
40,0,75,-->,0.162900,0.186222,0.999032,0.586416,0.006936,0.000160,0.000000
40,0,100,-->,0.160077,0.177161,0.999645,0.576036,0.002857,0.002031,0.000000
40,0,128,-->,0.154915,0.169448,0.999890,0.557230,0.003652,0.008139,0.000000
40,25,-127,-->,0.928588,0.019980,0.004822,0.018179,0.000000,0.000000,0.347873
40,25,-100,-->,0.901868,0.021450,0.002326,0.009197,0.000000,0.000000,0.448885
40,25,-75,-->,0.737839,0.063231,0.000006,0.000070,0.000000,0.000000,0.577090
40,25,-50,-->,0.431752,0.157476,0.000214,0.000925,0.000000,0.000000,0.629194
40,25,-25,-->,0.273420,0.412987,0.036275,0.134644,0.000000,0.000000,0.451050
40,25,0,-->,0.151371,0.598968,0.167733,0.479526,0.000086,0.000000,0.000000
40,25,25,-->,0.130692,0.498902,0.441476,0.490895,0.276308,0.000000,0.000000
40,25,50,-->,0.120414,0.350402,0.736167,0.509813,0.480733,0.000000,0.000000
40,25,75,-->,0.109028,0.259258,0.981963,0.512573,0.521345,0.000027,0.000000
40,25,100,-->,0.107505,0.248427,0.996659,0.504782,0.484083,0.000065,0.000000
40,25,128,-->,0.108053,0.244125,0.997562,0.501262,0.454987,0.000085,0.000000
40,50,-127,-->,0.869703,0.024151,0.000008,0.000086,0.000000,0.000000,0.551217
40,50,-100,-->,0.738868,0.058592,0.000030,0.000235,0.000000,0.000000,0.647278
40,50,-75,-->,0.409497,0.180098,0.000000,0.000017,0.000000,0.000000,0.691601
40,50,-50,-->,0.159612,0.462023,0.000001,0.000014,0.000000,0.000000,0.605298
40,50,-25,-->,0.088764,0.684969,0.005104,0.018857,0.000021,0.000000,0.445690
40,50,0,-->,0.088572,0.832593,0.124769,0.314820,0.010039,0.000000,0.000006
40,50,25,-->,0.071466,0.772671,0.233697,0.320327,0.375726,0.000000,0.000000
40,50,50,-->,0.062113,0.655280,0.291674,0.340529,0.740074,0.000000,0.000000
40,50,75,-->,0.041312,0.485539,0.513048,0.380787,0.970518,0.000019,0.000000
40,50,100,-->,0.037398,0.419696,0.626911,0.380827,0.988812,0.000047,0.000000
40,50,128,-->,0.041156,0.379675,0.679847,0.382185,0.964110,0.000037,0.000000
40,75,-127,-->,0.692410,0.070862,0.000033,0.000250,0.000000,0.000000,0.700012
40,75,-100,-->,0.404630,0.145379,0.000006,0.000057,0.000000,0.000000,0.766685
40,75,-75,-->,0.161134,0.426930,0.000002,0.000014,0.000000,0.000000,0.692825
40,75,-50,-->,0.061507,0.731845,0.000641,0.002410,0.000022,0.000000,0.505655
40,75,-25,-->,0.019183,0.897815,0.005255,0.012228,0.003529,0.000000,0.301045
40,75,0,-->,0.037591,0.983686,0.054080,0.125476,0.036529,0.000000,0.000027
40,75,25,-->,0.023953,0.980997,0.067092,0.113508,0.351562,0.000000,0.000006
40,75,50,-->,0.017502,0.969229,0.059911,0.110904,0.639292,0.000000,0.000017
40,75,75,-->,0.011049,0.914060,0.083068,0.113079,0.865915,0.000006,0.000019
40,75,100,-->,0.008961,0.853582,0.131659,0.119989,0.937293,0.000020,0.000010
40,75,128,-->,0.010190,0.791301,0.191843,0.141542,0.957831,0.000018,0.000006
40,100,-127,-->,0.389016,0.147468,0.000006,0.000044,0.000000,0.000000,0.788799
40,100,-100,-->,0.169631,0.381674,0.000003,0.000026,0.000000,0.000000,0.756509
40,100,-75,-->,0.064369,0.715355,0.000411,0.001573,0.000032,0.000000,0.553094
40,100,-50,-->,0.015499,0.903329,0.002396,0.005538,0.001778,0.000000,0.309123
40,100,-25,-->,0.009676,0.979135,0.012717,0.022481,0.025199,0.000000,0.088207
40,100,0,-->,0.007848,0.997015,0.015224,0.023021,0.138547,0.000000,0.000013
40,100,25,-->,0.003885,0.996962,0.010692,0.016474,0.346904,0.000000,0.000000
40,100,50,-->,0.002442,0.995127,0.007260,0.013713,0.515157,0.000000,0.000042
40,100,75,-->,0.002139,0.990494,0.006949,0.013964,0.668075,0.000000,0.000104
40,100,100,-->,0.001538,0.973659,0.008538,0.011999,0.800462,0.000000,0.000090
40,100,128,-->,0.001663,0.948042,0.022372,0.016719,0.868124,0.000000,0.000060
40,128,-127,-->,0.162889,0.374479,0.000001,0.000023,0.000000,0.000000,0.776241
40,128,-100,-->,0.059579,0.726561,0.000324,0.001287,0.000005,0.000000,0.564487
40,128,-75,-->,0.014246,0.905111,0.002482,0.005611,0.001807,0.000000,0.294103
40,128,-50,-->,0.006327,0.979939,0.008108,0.012507,0.019253,0.000000,0.068165
40,128,-25,-->,0.005921,0.995853,0.010275,0.014931,0.092761,0.000000,0.000015
40,128,0,-->,0.003900,0.997403,0.009738,0.013306,0.223173,0.000000,0.000000
40,128,25,-->,0.002089,0.998821,0.005420,0.008338,0.347172,0.000000,0.000000
40,128,50,-->,0.000586,0.998870,0.001104,0.003525,0.457598,0.000000,0.000010
40,128,75,-->,0.000705,0.996729,0.001485,0.004681,0.546732,0.000000,0.000057
40,128,100,-->,0.000769,0.994048,0.001886,0.005399,0.626616,0.000000,0.000109
40,128,128,-->,0.000733,0.990831,0.002310,0.005192,0.684467,0.000000,0.000146
60,-127,-127,-->,0.977947,0.001822,0.002380,0.003535,0.000000,0.070106,0.007187
60,-127,-100,-->,0.988411,0.000947,0.002193,0.002670,0.000000,0.110990,0.000559
60,-127,-75,-->,0.978193,0.000910,0.004314,0.002957,0.000000,0.163390,0.000282
60,-127,-50,-->,0.930061,0.000402,0.010223,0.001429,0.000000,0.332207,0.000071
60,-127,-25,-->,0.768455,0.000015,0.044524,0.000109,0.000000,0.650806,0.000009
60,-127,0,-->,0.415211,0.000000,0.125733,0.000048,0.000000,0.915397,0.000000
60,-127,25,-->,0.196350,0.000171,0.359776,0.001718,0.000000,0.975478,0.000000
60,-127,50,-->,0.133369,0.000170,0.672263,0.002287,0.000000,0.984413,0.000000
60,-127,75,-->,0.065216,0.000410,0.848461,0.004960,0.000000,0.975614,0.000000
60,-127,100,-->,0.023173,0.000591,0.922202,0.006188,0.000016,0.958075,0.000000
60,-127,128,-->,0.011876,0.001249,0.944021,0.010563,0.000016,0.911648,0.000000
60,-100,-127,-->,0.959459,0.003267,0.002541,0.004524,0.000000,0.044194,0.022602
60,-100,-100,-->,0.981934,0.001560,0.002377,0.003390,0.000000,0.078189,0.004682
60,-100,-75,-->,0.983588,0.000898,0.002992,0.002684,0.000000,0.130339,0.000415
60,-100,-50,-->,0.932423,0.000641,0.010351,0.002259,0.000000,0.283767,0.000121
60,-100,-25,-->,0.764731,0.000006,0.046480,0.000059,0.000000,0.624761,0.000003
60,-100,0,-->,0.380935,0.000000,0.132041,0.000020,0.000000,0.926274,0.000000
60,-100,25,-->,0.171885,0.000132,0.411225,0.001344,0.000000,0.977047,0.000000
60,-100,50,-->,0.109876,0.000168,0.759218,0.002419,0.000000,0.983102,0.000000
60,-100,75,-->,0.035048,0.000749,0.903502,0.008000,0.000008,0.961592,0.000000
60,-100,100,-->,0.012932,0.001596,0.945855,0.013461,0.000019,0.906661,0.000000
60,-100,128,-->,0.006800,0.001771,0.967411,0.013521,0.000024,0.841846,0.000000
60,-75,-127,-->,0.940099,0.004692,0.002558,0.005378,0.000000,0.019169,0.042417
60,-75,-100,-->,0.959935,0.003305,0.002586,0.004618,0.000000,0.044383,0.023103
60,-75,-75,-->,0.980048,0.001420,0.002358,0.003075,0.000000,0.084991,0.004590
60,-75,-50,-->,0.942738,0.000619,0.007966,0.002133,0.000000,0.195829,0.000180
60,-75,-25,-->,0.761974,0.000014,0.049065,0.000100,0.000000,0.567796,0.000002
60,-75,0,-->,0.349270,0.001268,0.137038,0.007230,0.000000,0.885802,0.000000
60,-75,25,-->,0.143534,0.003515,0.433745,0.023829,0.000000,0.930213,0.000000
60,-75,50,-->,0.079942,0.002985,0.786623,0.023801,0.000000,0.942415,0.000000
60,-75,75,-->,0.019331,0.003571,0.947796,0.028601,0.000012,0.899014,0.000000
60,-75,100,-->,0.014767,0.004846,0.974584,0.033140,0.000028,0.809302,0.000000
60,-75,128,-->,0.016116,0.005665,0.988718,0.034250,0.000026,0.725611,0.000000
60,-50,-127,-->,0.917151,0.007231,0.002080,0.005146,0.000000,0.001892,0.072098
60,-50,-100,-->,0.934538,0.005145,0.002526,0.005649,0.000000,0.011493,0.050661
60,-50,-75,-->,0.950086,0.003718,0.002400,0.004544,0.000000,0.033672,0.030086
60,-50,-50,-->,0.945551,0.000956,0.003062,0.001282,0.000000,0.085580,0.003962
60,-50,-25,-->,0.736622,0.003773,0.069784,0.015211,0.000000,0.374378,0.000138
60,-50,0,-->,0.434565,0.015982,0.211532,0.069802,0.000000,0.590376,0.000000
60,-50,25,-->,0.202478,0.024410,0.475790,0.116823,0.000000,0.670207,0.000000
60,-50,50,-->,0.109964,0.022531,0.793456,0.125934,0.000000,0.702821,0.000000
60,-50,75,-->,0.051090,0.017709,0.982153,0.108623,0.000002,0.704573,0.000000
60,-50,100,-->,0.044271,0.016426,0.995990,0.092217,0.000004,0.632168,0.000000
60,-50,128,-->,0.041278,0.015780,0.997945,0.081609,0.000005,0.563636,0.000000
60,-25,-127,-->,0.845695,0.019563,0.001053,0.003029,0.000000,0.000180,0.151885
60,-25,-100,-->,0.872169,0.014754,0.001399,0.003805,0.000000,0.000333,0.125630
60,-25,-75,-->,0.891436,0.011008,0.001648,0.004086,0.000000,0.002164,0.094798
60,-25,-50,-->,0.813379,0.020245,0.001236,0.002392,0.000000,0.001739,0.094564
60,-25,-25,-->,0.645920,0.061465,0.089194,0.125800,0.000000,0.054389,0.022199
60,-25,0,-->,0.448482,0.064270,0.270270,0.215240,0.000000,0.194880,0.000000
60,-25,25,-->,0.266023,0.066735,0.521310,0.247073,0.000000,0.299824,0.000000
60,-25,50,-->,0.170028,0.061010,0.798919,0.259934,0.000001,0.344166,0.000000
60,-25,75,-->,0.114900,0.052160,0.984032,0.244494,0.000025,0.364886,0.000000
60,-25,100,-->,0.099798,0.046704,0.999798,0.214562,0.000042,0.341619,0.000000
60,-25,128,-->,0.085112,0.041464,0.999830,0.180527,0.000386,0.307425,0.000000
60,0,-127,-->,0.725905,0.054915,0.000132,0.000535,0.000000,0.000000,0.244118
60,0,-100,-->,0.731346,0.053110,0.000142,0.000567,0.000000,0.000006,0.242622
60,0,-75,-->,0.716662,0.057632,0.000124,0.000481,0.000000,0.000004,0.241570
60,0,-50,-->,0.580484,0.108113,0.000008,0.000033,0.000000,0.000000,0.251078
60,0,-25,-->,0.441832,0.188539,0.028574,0.083125,0.000000,0.000000,0.170304
60,0,0,-->,0.176761,0.148141,0.131888,0.407645,0.000000,0.000000,0.000000
60,0,25,-->,0.128558,0.165126,0.483759,0.387608,0.000013,0.000000,0.000000
60,0,50,-->,0.107458,0.149559,0.767132,0.377605,0.002862,0.000000,0.000000
60,0,75,-->,0.092874,0.124829,0.972690,0.364467,0.028230,0.000000,0.000000
60,0,100,-->,0.087680,0.109612,1.000000,0.340802,0.017925,0.000176,0.000000
60,0,128,-->,0.080988,0.097016,1.000000,0.302367,0.014147,0.007006,0.000000
60,25,-127,-->,0.590408,0.110535,0.000000,0.000006,0.000000,0.000000,0.320587
60,25,-100,-->,0.558778,0.125825,0.000000,0.000003,0.000000,0.000000,0.337968
60,25,-75,-->,0.491486,0.156264,0.000000,0.000002,0.000000,0.000000,0.357692
60,25,-50,-->,0.319199,0.247815,0.000000,0.000005,0.000000,0.000000,0.340900
60,25,-25,-->,0.205272,0.382988,0.006508,0.017770,0.000005,0.000000,0.237258
60,25,0,-->,0.083938,0.465023,0.121633,0.225821,0.000113,0.000000,0.000000
60,25,25,-->,0.068417,0.368832,0.353313,0.230316,0.175470,0.000000,0.000004
60,25,50,-->,0.060436,0.258586,0.604314,0.242784,0.312875,0.000000,0.000000
60,25,75,-->,0.054057,0.167055,0.875582,0.256892,0.393900,0.000000,0.000000
60,25,100,-->,0.049672,0.122905,0.999462,0.247949,0.384826,0.000000,0.000000
60,25,128,-->,0.048825,0.118119,0.999808,0.233880,0.335052,0.000000,0.000000
60,50,-127,-->,0.459718,0.171613,0.000000,0.000000,0.000000,0.000000,0.382009
60,50,-100,-->,0.384781,0.201510,0.000000,0.000000,0.000000,0.000000,0.417188
60,50,-75,-->,0.271762,0.269597,0.000000,0.000000,0.000000,0.000000,0.442391
60,50,-50,-->,0.149062,0.480365,0.000041,0.000103,0.000004,0.000000,0.303203
60,50,-25,-->,0.078126,0.614386,0.000955,0.001014,0.000532,0.000000,0.144809
60,50,0,-->,0.022677,0.667759,0.073492,0.057208,0.019149,0.000000,0.000000
60,50,25,-->,0.018776,0.559861,0.184318,0.068017,0.307605,0.000000,0.000000
60,50,50,-->,0.020778,0.379913,0.262620,0.091671,0.577945,0.000000,0.000000
60,50,75,-->,0.021128,0.220375,0.484261,0.116339,0.739866,0.000000,0.000000
60,50,100,-->,0.018084,0.113727,0.818600,0.139184,0.860436,0.000000,0.000000
60,50,128,-->,0.016650,0.083085,0.938201,0.124602,0.820717,0.000000,0.000000
60,75,-127,-->,0.314698,0.225828,0.000000,0.000000,0.000000,0.000000,0.449210
60,75,-100,-->,0.229679,0.317205,0.000000,0.000000,0.000000,0.000000,0.451792
60,75,-75,-->,0.152112,0.487636,0.000031,0.000130,0.000002,0.000000,0.392273
60,75,-50,-->,0.076924,0.659943,0.000632,0.002017,0.000058,0.000000,0.249079
60,75,-25,-->,0.023946,0.772808,0.006623,0.005306,0.008665,0.000000,0.079340
60,75,0,-->,0.000648,0.849674,0.010868,0.001447,0.049818,0.000000,0.000000
60,75,25,-->,0.000197,0.792492,0.046144,0.000702,0.348503,0.000000,0.000000
60,75,50,-->,0.000531,0.697706,0.077617,0.002582,0.619426,0.000000,0.000000
60,75,75,-->,0.001553,0.544438,0.099130,0.010668,0.849455,0.000000,0.000000
60,75,100,-->,0.001118,0.437552,0.245251,0.015462,0.969540,0.000000,0.000000
60,75,128,-->,0.001177,0.339392,0.480640,0.018440,0.992342,0.000000,0.000000
60,100,-127,-->,0.211212,0.341468,0.000000,0.000000,0.000000,0.000000,0.447896
60,100,-100,-->,0.147476,0.500009,0.000000,0.000006,0.000000,0.000000,0.399163
60,100,-75,-->,0.081764,0.664815,0.000633,0.001928,0.000087,0.000000,0.326199
60,100,-50,-->,0.026297,0.808150,0.006087,0.009001,0.003806,0.000000,0.164862
60,100,-25,-->,0.006718,0.895766,0.005113,0.005276,0.018321,0.000000,0.035050
60,100,0,-->,0.000324,0.951731,0.002945,0.000835,0.117503,0.000000,0.000008
60,100,25,-->,0.000153,0.940839,0.007885,0.000608,0.351451,0.000000,0.000000
60,100,50,-->,0.000058,0.910475,0.013774,0.000308,0.564420,0.000000,0.000000
60,100,75,-->,0.000241,0.838538,0.023998,0.001423,0.757393,0.000000,0.000000
60,100,100,-->,0.000999,0.741794,0.067232,0.008054,0.894507,0.000000,0.000000
60,100,128,-->,0.001052,0.624264,0.177213,0.013943,0.974773,0.000000,0.000000
60,128,-127,-->,0.144410,0.508739,0.000000,0.000006,0.000000,0.000000,0.395216
60,128,-100,-->,0.087597,0.651438,0.000579,0.002068,0.000018,0.000000,0.343169
60,128,-75,-->,0.027472,0.817478,0.003404,0.005924,0.002102,0.000000,0.211934
60,128,-50,-->,0.006375,0.921854,0.005164,0.007020,0.010770,0.000000,0.050063
60,128,-25,-->,0.000905,0.979264,0.001871,0.002045,0.063385,0.000000,0.000920
60,128,0,-->,0.000644,0.986000,0.002386,0.002099,0.212335,0.000000,0.000015
60,128,25,-->,0.000257,0.986686,0.002106,0.001073,0.368340,0.000000,0.000000
60,128,50,-->,0.000096,0.979328,0.003081,0.000592,0.506958,0.000000,0.000007
60,128,75,-->,0.000064,0.960601,0.005533,0.000411,0.634623,0.000000,0.000012
60,128,100,-->,0.000031,0.934311,0.007486,0.000291,0.749211,0.000000,0.000011
60,128,128,-->,0.000345,0.889435,0.019628,0.002454,0.853578,0.000000,0.000000
80,-127,-127,-->,0.726222,0.000278,0.025018,0.000091,0.000000,0.062952,0.000214
80,-127,-100,-->,0.740555,0.000172,0.033547,0.000208,0.000000,0.120979,0.000120
80,-127,-75,-->,0.749936,0.000003,0.041111,0.000007,0.000000,0.201734,0.000014
80,-127,-50,-->,0.747065,0.000010,0.048568,0.000041,0.000000,0.289743,0.000007
80,-127,-25,-->,0.669467,0.000007,0.085032,0.000046,0.000000,0.432291,0.000001
80,-127,0,-->,0.380790,0.000000,0.147386,0.000000,0.000000,0.697285,0.000000
80,-127,25,-->,0.161777,0.000003,0.287889,0.000027,0.000000,0.838070,0.000000
80,-127,50,-->,0.085677,0.000001,0.555164,0.000023,0.000000,0.868776,0.000000
80,-127,75,-->,0.036179,0.000026,0.781626,0.000184,0.000000,0.881395,0.000000
80,-127,100,-->,0.011260,0.000059,0.903978,0.000440,0.000001,0.863632,0.000000
80,-127,128,-->,0.007231,0.000077,0.937267,0.000531,0.000003,0.810956,0.000000
80,-100,-127,-->,0.703082,0.000500,0.019098,0.000170,0.000000,0.025724,0.000341
80,-100,-100,-->,0.717776,0.000306,0.027560,0.000146,0.000000,0.067701,0.000216
80,-100,-75,-->,0.729735,0.000137,0.037801,0.000146,0.000000,0.135056,0.000091
80,-100,-50,-->,0.729049,0.000002,0.050539,0.000005,0.000000,0.233031,0.000014
80,-100,-25,-->,0.643432,0.000003,0.094023,0.000015,0.000000,0.383424,0.000000
80,-100,0,-->,0.348271,0.000000,0.168803,0.000000,0.000000,0.657585,0.000000
80,-100,25,-->,0.153980,0.000003,0.338042,0.000024,0.000000,0.773928,0.000000
80,-100,50,-->,0.079681,0.000003,0.621731,0.000042,0.000000,0.802769,0.000000
80,-100,75,-->,0.030414,0.000009,0.827114,0.000072,0.000000,0.810714,0.000000
80,-100,100,-->,0.011085,0.000140,0.923109,0.000763,0.000000,0.773117,0.000000
80,-100,128,-->,0.006111,0.000298,0.962823,0.001555,0.000000,0.712792,0.000000
80,-75,-127,-->,0.659966,0.016406,0.012739,0.000173,0.000000,0.011134,0.010253
80,-75,-100,-->,0.686065,0.004263,0.019629,0.000205,0.000000,0.024784,0.002306
80,-75,-75,-->,0.702338,0.000364,0.030267,0.000198,0.000000,0.066583,0.000218
80,-75,-50,-->,0.708876,0.000115,0.046792,0.000113,0.000000,0.154185,0.000067
80,-75,-25,-->,0.620411,0.000004,0.098928,0.000010,0.000000,0.303664,0.000002
80,-75,0,-->,0.324304,0.000000,0.193827,0.000000,0.000000,0.591293,0.000000
80,-75,25,-->,0.155448,0.000000,0.383687,0.000001,0.000000,0.681865,0.000000
80,-75,50,-->,0.082181,0.000000,0.666223,0.000010,0.000000,0.698202,0.000000
80,-75,75,-->,0.025617,0.000030,0.865285,0.000174,0.000000,0.697816,0.000000
80,-75,100,-->,0.006876,0.000191,0.960648,0.000956,0.000005,0.662717,0.000000
80,-75,128,-->,0.001378,0.000405,0.994618,0.001826,0.000053,0.613649,0.000000
80,-50,-127,-->,0.611820,0.037232,0.006441,0.000155,0.000000,0.005343,0.021819
80,-50,-100,-->,0.627593,0.026606,0.010413,0.000195,0.000000,0.007939,0.013299
80,-50,-75,-->,0.651751,0.011957,0.017667,0.000279,0.000000,0.014574,0.004612
80,-50,-50,-->,0.671024,0.000974,0.033596,0.000316,0.000000,0.051079,0.000374
80,-50,-25,-->,0.592996,0.000107,0.095132,0.000100,0.000000,0.187628,0.000049
80,-50,0,-->,0.362304,0.000000,0.213666,0.000000,0.000000,0.412314,0.000000
80,-50,25,-->,0.179324,0.000005,0.406255,0.000018,0.000000,0.512422,0.000000
80,-50,50,-->,0.093054,0.000010,0.665102,0.000040,0.000000,0.546702,0.000000
80,-50,75,-->,0.017645,0.000154,0.906938,0.000669,0.000000,0.561945,0.000000
80,-50,100,-->,0.004875,0.000989,0.978626,0.004257,0.000051,0.509736,0.000000
80,-50,128,-->,0.005121,0.001223,0.981925,0.005253,0.000066,0.453960,0.000000
80,-25,-127,-->,0.548739,0.068759,0.000463,0.000127,0.000000,0.000343,0.044061
80,-25,-100,-->,0.556903,0.059748,0.002269,0.000154,0.000000,0.001615,0.032268
80,-25,-75,-->,0.562651,0.049057,0.004515,0.000194,0.000000,0.002770,0.019428
80,-25,-50,-->,0.569687,0.030152,0.009612,0.000211,0.000000,0.004812,0.008363
80,-25,-25,-->,0.506762,0.010948,0.053610,0.005223,0.000000,0.033983,0.001023
80,-25,0,-->,0.334794,0.007859,0.199621,0.018049,0.000000,0.142167,0.000000
80,-25,25,-->,0.192588,0.011740,0.406834,0.031594,0.000000,0.222265,0.000000
80,-25,50,-->,0.111661,0.011929,0.642610,0.036772,0.000001,0.258045,0.000000
80,-25,75,-->,0.040749,0.010187,0.875581,0.034854,0.000001,0.302050,0.000000
80,-25,100,-->,0.017061,0.007801,0.993632,0.026559,0.000329,0.284539,0.000000
80,-25,128,-->,0.016399,0.009103,0.999143,0.027638,0.002189,0.240873,0.000000
80,0,-127,-->,0.458234,0.124015,0.000058,0.000137,0.000000,0.000000,0.097674
80,0,-100,-->,0.448992,0.124468,0.000058,0.000125,0.000000,0.000000,0.089387
80,0,-75,-->,0.434131,0.125240,0.000058,0.000113,0.000000,0.000000,0.078099
80,0,-50,-->,0.406942,0.125095,0.000218,0.000305,0.000000,0.000000,0.061744
80,0,-25,-->,0.313139,0.140505,0.002425,0.004397,0.000000,0.000007,0.024312
80,0,0,-->,0.108289,0.088664,0.084617,0.166645,0.000000,0.000000,0.000000
80,0,25,-->,0.067456,0.098625,0.366230,0.152111,0.000009,0.000000,0.000000
80,0,50,-->,0.049286,0.097736,0.620470,0.135024,0.001772,0.000000,0.000000
80,0,75,-->,0.043171,0.074801,0.837697,0.129459,0.027831,0.000010,0.000000
80,0,100,-->,0.035363,0.052491,0.998939,0.107020,0.038391,0.000014,0.000000
80,0,128,-->,0.027234,0.039133,1.000000,0.075029,0.033314,0.004656,0.000000
80,25,-127,-->,0.372179,0.172167,0.000032,0.000116,0.000000,0.000000,0.137520
80,25,-100,-->,0.341948,0.184772,0.000031,0.000093,0.000000,0.000000,0.137587
80,25,-75,-->,0.297820,0.204471,0.000018,0.000074,0.000000,0.000000,0.137305
80,25,-50,-->,0.230454,0.253591,0.000034,0.000075,0.000000,0.000000,0.109526
80,25,-25,-->,0.113676,0.334109,0.003224,0.000889,0.000000,0.000000,0.034628
80,25,0,-->,0.017965,0.349218,0.055297,0.029285,0.000027,0.000000,0.000000
80,25,25,-->,0.009890,0.265151,0.265875,0.024470,0.140457,0.000000,0.000000
80,25,50,-->,0.007862,0.181102,0.483430,0.023993,0.244635,0.000000,0.000000
80,25,75,-->,0.007627,0.094047,0.711024,0.026672,0.314329,0.000000,0.000000
80,25,100,-->,0.006727,0.028018,0.927985,0.025875,0.360992,0.000000,0.000000
80,25,128,-->,0.004711,0.010983,0.999840,0.016624,0.331982,0.000000,0.000000
80,50,-127,-->,0.288472,0.218738,0.000031,0.000098,0.000000,0.000000,0.169021
80,50,-100,-->,0.242635,0.252761,0.000031,0.000088,0.000000,0.000000,0.163575
80,50,-75,-->,0.185342,0.322233,0.000026,0.000065,0.000000,0.000000,0.121422
80,50,-50,-->,0.112196,0.419808,0.000025,0.000057,0.000000,0.000000,0.058514
80,50,-25,-->,0.034155,0.502128,0.020734,0.002394,0.003735,0.000000,0.007585
80,50,0,-->,0.000235,0.543432,0.066942,0.000471,0.026778,0.000000,0.000000
80,50,25,-->,0.000000,0.437305,0.183169,0.000011,0.239931,0.000000,0.000000
80,50,50,-->,0.000004,0.256871,0.256696,0.000017,0.479151,0.000000,0.000000
80,50,75,-->,0.000021,0.151871,0.486263,0.000084,0.595911,0.000000,0.000000
80,50,100,-->,0.000064,0.051325,0.774426,0.000341,0.672786,0.000000,0.000000
80,50,128,-->,0.000389,0.006509,0.963898,0.001938,0.656503,0.000000,0.000000
80,75,-127,-->,0.218352,0.295326,0.000030,0.000093,0.000000,0.000000,0.156434
80,75,-100,-->,0.166783,0.365812,0.000030,0.000083,0.000000,0.000000,0.117557
80,75,-75,-->,0.116841,0.443798,0.000043,0.000088,0.000000,0.000000,0.078533
80,75,-50,-->,0.059609,0.541547,0.008482,0.002307,0.002063,0.000000,0.032362
80,75,-25,-->,0.013569,0.636720,0.029381,0.002615,0.019330,0.000000,0.004976
80,75,0,-->,0.000000,0.665335,0.058352,0.000002,0.096648,0.000000,0.000000
80,75,25,-->,0.000000,0.594219,0.118135,0.000000,0.284146,0.000000,0.000000
80,75,50,-->,0.000017,0.454924,0.173702,0.000063,0.506315,0.000000,0.000000
80,75,75,-->,0.000030,0.274070,0.213207,0.000128,0.706183,0.000000,0.000000
80,75,100,-->,0.000071,0.158226,0.341122,0.000407,0.835324,0.000000,0.000000
80,75,128,-->,0.000248,0.085343,0.623757,0.001559,0.882270,0.000000,0.000000
80,100,-127,-->,0.160221,0.385525,0.000029,0.000077,0.000000,0.000000,0.120245
80,100,-100,-->,0.119644,0.455239,0.000046,0.000095,0.000002,0.000000,0.090185
80,100,-75,-->,0.080050,0.532265,0.002313,0.000918,0.000573,0.000000,0.056877
80,100,-50,-->,0.030020,0.644073,0.017811,0.004789,0.009082,0.000000,0.021985
80,100,-25,-->,0.004513,0.757990,0.016889,0.001002,0.036650,0.000000,0.003225
80,100,0,-->,0.000009,0.773444,0.033288,0.000023,0.140506,0.000000,0.000000
80,100,25,-->,0.000004,0.717188,0.068762,0.000015,0.315186,0.000000,0.000000
80,100,50,-->,0.000024,0.635434,0.105779,0.000110,0.490423,0.000000,0.000000
80,100,75,-->,0.000061,0.508203,0.126978,0.000268,0.655208,0.000000,0.000000
80,100,100,-->,0.000142,0.372313,0.142185,0.000833,0.798420,0.000000,0.000000
80,100,128,-->,0.000120,0.265233,0.193086,0.000785,0.897825,0.000000,0.000000
80,128,-127,-->,0.120086,0.465081,0.000047,0.000091,0.000000,0.000000,0.097711
80,128,-100,-->,0.087618,0.531395,0.000078,0.000122,0.000009,0.000000,0.072322
80,128,-75,-->,0.047072,0.619562,0.008949,0.003529,0.003731,0.000000,0.040748
80,128,-50,-->,0.012296,0.745295,0.011046,0.002055,0.017090,0.000000,0.011830
80,128,-25,-->,0.001113,0.826758,0.012262,0.000462,0.064164,0.000000,0.000882
80,128,0,-->,0.000043,0.831122,0.021493,0.000107,0.178204,0.000000,0.000000
80,128,25,-->,0.000020,0.791441,0.041946,0.000071,0.322257,0.000000,0.000000
80,128,50,-->,0.000029,0.735888,0.066997,0.000131,0.458305,0.000000,0.000000
80,128,75,-->,0.000066,0.661307,0.090373,0.000303,0.586041,0.000000,0.000000
80,128,100,-->,0.000163,0.560356,0.104896,0.000836,0.698649,0.000000,0.000000
80,128,128,-->,0.000314,0.462831,0.116132,0.001990,0.798179,0.000000,0.000000
100,-127,-127,-->,0.633795,0.000604,0.038099,0.000344,0.000000,0.033807,0.000254
100,-127,-100,-->,0.618465,0.000278,0.060006,0.000230,0.000000,0.086868,0.000135
100,-127,-75,-->,0.602072,0.000130,0.081863,0.000134,0.000000,0.143847,0.000062
100,-127,-50,-->,0.577597,0.000025,0.107483,0.000040,0.000000,0.212390,0.000005
100,-127,-25,-->,0.527651,0.000000,0.138235,0.000000,0.000000,0.311098,0.000000
100,-127,0,-->,0.368145,0.000000,0.193248,0.000000,0.000000,0.484753,0.000000
100,-127,25,-->,0.213372,0.000000,0.278453,0.000000,0.000000,0.608083,0.000000
100,-127,50,-->,0.141377,0.000000,0.475049,0.000000,0.000000,0.651118,0.000000
100,-127,75,-->,0.090437,0.000000,0.647488,0.000001,0.000000,0.671790,0.000000
100,-127,100,-->,0.051504,0.000000,0.771313,0.000000,0.000000,0.677807,0.000000
100,-127,128,-->,0.025698,0.000000,0.862626,0.000000,0.000000,0.653397,0.000000
100,-100,-127,-->,0.594065,0.008628,0.025361,0.000264,0.000000,0.007907,0.001393
100,-100,-100,-->,0.600370,0.001047,0.044799,0.000224,0.000000,0.031534,0.000230
100,-100,-75,-->,0.582535,0.000144,0.070733,0.000123,0.000000,0.084095,0.000063
100,-100,-50,-->,0.556060,0.000041,0.098895,0.000054,0.000000,0.143271,0.000018
100,-100,-25,-->,0.504983,0.000000,0.142774,0.000006,0.000000,0.248954,0.000000
100,-100,0,-->,0.373340,0.000000,0.205329,0.000000,0.000000,0.399632,0.000000
100,-100,25,-->,0.215268,0.000000,0.326938,0.000000,0.000000,0.516075,0.000000
100,-100,50,-->,0.137175,0.000000,0.532902,0.000000,0.000000,0.556422,0.000000
100,-100,75,-->,0.083607,0.000000,0.686767,0.000003,0.000000,0.578955,0.000000
100,-100,100,-->,0.039572,0.000000,0.812995,0.000000,0.000000,0.590121,0.000000
100,-100,128,-->,0.018677,0.000011,0.899165,0.000034,0.000000,0.572056,0.000000
100,-75,-127,-->,0.545088,0.020950,0.013919,0.000217,0.000000,0.003656,0.002918
100,-75,-100,-->,0.550463,0.009967,0.027415,0.000746,0.000000,0.009232,0.000859
100,-75,-75,-->,0.548754,0.002425,0.052239,0.000398,0.000000,0.030777,0.000044
100,-75,-50,-->,0.527798,0.000230,0.086124,0.000073,0.000000,0.076181,0.000001
100,-75,-25,-->,0.479332,0.000000,0.136785,0.000000,0.000000,0.168482,0.000000
100,-75,0,-->,0.367816,0.000000,0.208516,0.000000,0.000000,0.295445,0.000000
100,-75,25,-->,0.208046,0.000000,0.368371,0.000000,0.000000,0.416962,0.000000
100,-75,50,-->,0.129193,0.000000,0.571623,0.000007,0.000000,0.435254,0.000000
100,-75,75,-->,0.069837,0.000000,0.723637,0.000013,0.000000,0.464627,0.000000
100,-75,100,-->,0.030402,0.000001,0.844396,0.000013,0.000000,0.475370,0.000000
100,-75,128,-->,0.010132,0.000020,0.926043,0.000060,0.000010,0.457192,0.000000
100,-50,-127,-->,0.494127,0.031970,0.004735,0.001649,0.000000,0.000639,0.004084
100,-50,-100,-->,0.488660,0.019378,0.014315,0.002092,0.000000,0.003558,0.001110
100,-50,-75,-->,0.477541,0.009847,0.028043,0.001595,0.000000,0.010381,0.000035
100,-50,-50,-->,0.464900,0.002998,0.054585,0.000811,0.000000,0.027850,0.000002
100,-50,-25,-->,0.437215,0.000284,0.115234,0.000128,0.000000,0.079793,0.000000
100,-50,0,-->,0.331559,0.000000,0.209678,0.000013,0.000000,0.179161,0.000000
100,-50,25,-->,0.191195,0.000000,0.390930,0.000000,0.000000,0.267260,0.000000
100,-50,50,-->,0.110693,0.000015,0.594329,0.000042,0.000002,0.265275,0.000000
100,-50,75,-->,0.050439,0.000054,0.754296,0.000124,0.000013,0.278437,0.000000
100,-50,100,-->,0.017821,0.000141,0.874074,0.000388,0.000017,0.310764,0.000000
100,-50,128,-->,0.007666,0.000418,0.942606,0.001320,0.000057,0.300202,0.000000
100,-25,-127,-->,0.433306,0.072364,0.004064,0.002754,0.000000,0.000033,0.018252
100,-25,-100,-->,0.420267,0.058225,0.007396,0.003013,0.000000,0.000104,0.008892
100,-25,-75,-->,0.398593,0.040897,0.011098,0.002587,0.000000,0.000183,0.002969
100,-25,-50,-->,0.366817,0.023557,0.016920,0.001485,0.000000,0.002656,0.000473
100,-25,-25,-->,0.324774,0.010110,0.048179,0.000428,0.000000,0.014117,0.000000
100,-25,0,-->,0.240528,0.001116,0.159132,0.001251,0.000000,0.046823,0.000000
100,-25,25,-->,0.145446,0.001421,0.360913,0.000357,0.000000,0.091024,0.000000
100,-25,50,-->,0.085232,0.001925,0.571025,0.000051,0.000077,0.113729,0.000000
100,-25,75,-->,0.032349,0.002029,0.756458,0.000068,0.001539,0.116673,0.000000
100,-25,100,-->,0.007725,0.001048,0.897747,0.000283,0.003949,0.121577,0.000000
100,-25,128,-->,0.001096,0.000455,0.975600,0.000729,0.005402,0.125778,0.000000
100,0,-127,-->,0.371411,0.121649,0.001834,0.001964,0.000000,0.000015,0.035285
100,0,-100,-->,0.348487,0.118537,0.002449,0.001594,0.000000,0.000027,0.020422
100,0,-75,-->,0.315274,0.112912,0.002638,0.001158,0.000000,0.000031,0.010064
100,0,-50,-->,0.263780,0.097097,0.002420,0.001167,0.000000,0.000017,0.001680
100,0,-25,-->,0.168551,0.071343,0.003948,0.003574,0.000000,0.000000,0.000000
100,0,0,-->,0.000000,0.000020,0.000023,0.000000,0.000000,0.000000,0.000000
100,0,25,-->,0.000000,0.019130,0.256037,0.000000,0.000003,0.000000,0.000000
100,0,50,-->,0.000000,0.027475,0.502703,0.000000,0.000015,0.000000,0.000000
100,0,75,-->,0.000000,0.022316,0.716529,0.000000,0.011198,0.000010,0.000000
100,0,100,-->,0.000381,0.005494,0.882284,0.000004,0.022835,0.005413,0.000000
100,0,128,-->,0.000031,0.000839,0.973280,0.000015,0.025937,0.005630,0.000000
100,25,-127,-->,0.306386,0.169010,0.000542,0.001141,0.000000,0.000000,0.057707
100,25,-100,-->,0.271919,0.178890,0.000348,0.000698,0.000000,0.000000,0.042321
100,25,-75,-->,0.220084,0.192330,0.000238,0.000446,0.000000,0.000000,0.025385
100,25,-50,-->,0.137043,0.209172,0.000207,0.000434,0.000000,0.000000,0.006094
100,25,-25,-->,0.043017,0.213982,0.007884,0.001108,0.000000,0.000000,0.000042
100,25,0,-->,0.001320,0.221944,0.044790,0.001091,0.005446,0.000000,0.000000
100,25,25,-->,0.000226,0.208357,0.247405,0.000300,0.066966,0.000000,0.000000
100,25,50,-->,0.000000,0.160481,0.444735,0.000008,0.154747,0.000000,0.000000
100,25,75,-->,0.000000,0.101636,0.618576,0.000000,0.207882,0.000000,0.000000
100,25,100,-->,0.000000,0.043297,0.789122,0.000000,0.243365,0.000000,0.000000
100,25,128,-->,0.000000,0.007775,0.937404,0.000000,0.224919,0.000000,0.000000
100,50,-127,-->,0.239617,0.214980,0.000271,0.000563,0.000000,0.000000,0.082549
100,50,-100,-->,0.193311,0.240333,0.000211,0.000371,0.000000,0.000000,0.061887
100,50,-75,-->,0.126820,0.276674,0.000170,0.000184,0.000000,0.000000,0.029266
100,50,-50,-->,0.047896,0.311257,0.004719,0.001672,0.000000,0.000000,0.001546
100,50,-25,-->,0.012598,0.340839,0.030836,0.003711,0.000144,0.000000,0.000065
100,50,0,-->,0.000017,0.373485,0.085026,0.000050,0.023888,0.000000,0.000000
100,50,25,-->,0.000010,0.329244,0.195122,0.000021,0.133072,0.000000,0.000000
100,50,50,-->,0.000002,0.236287,0.329188,0.000005,0.264048,0.000000,0.000000
100,50,75,-->,0.000000,0.168909,0.491268,0.000001,0.334852,0.000000,0.000000
100,50,100,-->,0.000000,0.105288,0.645703,0.000000,0.391252,0.000000,0.000000
100,50,128,-->,0.000000,0.039452,0.813179,0.000002,0.435767,0.000000,0.000000
100,75,-127,-->,0.179238,0.271297,0.000074,0.000120,0.000000,0.000000,0.081978
100,75,-100,-->,0.124755,0.315493,0.000118,0.000104,0.000000,0.000000,0.040534
100,75,-75,-->,0.067863,0.356608,0.002322,0.000833,0.000000,0.000000,0.008963
100,75,-50,-->,0.025399,0.392697,0.020338,0.002766,0.000000,0.000000,0.000674
100,75,-25,-->,0.004787,0.444515,0.048154,0.001816,0.003781,0.000000,0.000069
100,75,0,-->,0.000106,0.473679,0.096354,0.000206,0.050250,0.000000,0.000000
100,75,25,-->,0.000051,0.429660,0.163822,0.000110,0.153572,0.000000,0.000000
100,75,50,-->,0.000013,0.317808,0.246711,0.000033,0.293125,0.000000,0.000000
100,75,75,-->,0.000000,0.222456,0.342283,0.000005,0.423008,0.000000,0.000000
100,75,100,-->,0.000000,0.165358,0.486665,0.000000,0.488128,0.000000,0.000000
100,75,128,-->,0.000000,0.104268,0.648235,0.000005,0.538104,0.000000,0.000000
100,100,-127,-->,0.125235,0.342463,0.000059,0.000053,0.000000,0.000000,0.047710
100,100,-100,-->,0.080726,0.384121,0.000089,0.000051,0.000000,0.000000,0.018519
100,100,-75,-->,0.042549,0.420541,0.010158,0.001745,0.000189,0.000000,0.003424
100,100,-50,-->,0.015379,0.468593,0.033129,0.002817,0.003062,0.000000,0.000398
100,100,-25,-->,0.002450,0.526339,0.055745,0.001246,0.015127,0.000000,0.000049
100,100,0,-->,0.000000,0.543879,0.091807,0.000000,0.078094,0.000000,0.000000
100,100,25,-->,0.000000,0.509099,0.137169,0.000000,0.170986,0.000000,0.000000
100,100,50,-->,0.000000,0.414001,0.199048,0.000000,0.292992,0.000000,0.000000
100,100,75,-->,0.000000,0.298840,0.239751,0.000000,0.440960,0.000000,0.000000
100,100,100,-->,0.000004,0.221832,0.326667,0.000022,0.535957,0.000000,0.000000
100,100,128,-->,0.000004,0.158510,0.460075,0.000011,0.601314,0.000000,0.000000
100,128,-127,-->,0.086884,0.410843,0.000015,0.000014,0.000000,0.000000,0.021794
100,128,-100,-->,0.056599,0.445877,0.003884,0.000641,0.000080,0.000000,0.003998
100,128,-75,-->,0.026318,0.489929,0.024562,0.003735,0.002892,0.000000,0.002439
100,128,-50,-->,0.007284,0.550991,0.039941,0.002323,0.010027,0.000000,0.000828
100,128,-25,-->,0.000704,0.592361,0.055454,0.000032,0.035227,0.000000,0.000009
100,128,0,-->,0.000000,0.592004,0.083728,0.000000,0.105018,0.000000,0.000000
100,128,25,-->,0.000000,0.571934,0.113205,0.000000,0.183884,0.000000,0.000000
100,128,50,-->,0.000000,0.501523,0.160972,0.000000,0.291347,0.000000,0.000000
100,128,75,-->,0.000000,0.411532,0.197156,0.000000,0.407434,0.000000,0.000000
100,128,100,-->,0.000004,0.311940,0.230192,0.000027,0.529764,0.000000,0.000000
100,128,128,-->,0.000031,0.221942,0.279774,0.000092,0.625650,0.000000,0.000000
-1,0,0,-->,0.967014,0.590482,0.431878,0.999982,0.000000,0.000001,0.000025
101,0,0,-->,0.000000,0.000020,0.000023,0.000000,0.000000,0.000000,0.000000
50,-130,0,-->,0.556757,0.000031,0.175420,0.000372,0.000000,0.984820,0.000000
50,130,0,-->,0.001831,0.994706,0.005036,0.006424,0.231552,0.000000,0.000000
50,0,-130,-->,0.901348,0.014574,0.000825,0.003130,0.000000,0.000015,0.306951
50,0,130,-->,0.111345,0.129817,1.000000,0.430889,0.009531,0.003769,0.000000
