0,-127,-127,-->,1.000000,0.216174,0.155646,0.614814,0.000000,0.000000,0.138231
0,-127,-100,-->,1.000000,0.225779,0.154717,0.628038,0.000000,0.000000,0.169408
0,-127,-75,-->,1.000000,0.252088,0.150676,0.618511,0.000000,0.000000,0.270633
0,-127,-50,-->,1.000000,0.275506,0.142285,0.622087,0.000000,0.000000,0.544923
0,-127,-25,-->,1.000000,0.403547,0.192873,0.809504,0.000000,0.000000,0.614928
0,-127,0,-->,0.967093,0.590448,0.431872,1.000000,0.000000,0.000000,0.000000
0,-127,25,-->,0.967093,0.590448,0.431872,1.000000,0.000000,0.000000,0.000000
0,-127,50,-->,0.967093,0.590448,0.431872,1.000000,0.000000,0.000000,0.000000
0,-127,75,-->,0.967093,0.590448,0.431872,1.000000,0.000000,0.000000,0.000000
0,-127,100,-->,0.967093,0.590448,0.431872,1.000000,0.000000,0.000000,0.000000
0,-127,128,-->,0.967093,0.590448,0.431872,1.000000,0.000000,0.000000,0.000000
0,-100,-127,-->,1.000000,0.216174,0.155646,0.614814,0.000000,0.000000,0.138231
0,-100,-100,-->,1.000000,0.225779,0.154717,0.628038,0.000000,0.000000,0.169408
0,-100,-75,-->,1.000000,0.252088,0.150676,0.618511,0.000000,0.000000,0.270633
0,-100,-50,-->,1.000000,0.275506,0.142285,0.622087,0.000000,0.000000,0.544923
0,-100,-25,-->,1.000000,0.403547,0.192873,0.809504,0.000000,0.000000,0.614928
0,-100,0,-->,0.967093,0.590448,0.431872,1.000000,0.000000,0.000000,0.000000
0,-100,25,-->,0.967093,0.590448,0.431872,1.000000,0.000000,0.000000,0.000000
0,-100,50,-->,0.967093,0.590448,0.431872,1.000000,0.000000,0.000000,0.000000
0,-100,75,-->,0.967093,0.590448,0.431872,1.000000,0.000000,0.000000,0.000000
0,-100,100,-->,0.967093,0.590448,0.431872,1.000000,0.000000,0.000000,0.000000
0,-100,128,-->,0.967093,0.590448,0.431872,1.000000,0.000000,0.000000,0.000000
0,-75,-127,-->,1.000000,0.216174,0.155646,0.614814,0.000000,0.000000,0.138231
0,-75,-100,-->,1.000000,0.225779,0.154717,0.628038,0.000000,0.000000,0.169408
0,-75,-75,-->,1.000000,0.252088,0.150676,0.618511,0.000000,0.000000,0.270633
0,-75,-50,-->,1.000000,0.275506,0.142285,0.622087,0.000000,0.000000,0.544923
0,-75,-25,-->,1.000000,0.403547,0.192873,0.809504,0.000000,0.000000,0.614928
0,-75,0,-->,0.967093,0.590448,0.431872,1.000000,0.000000,0.000000,0.000000
0,-75,25,-->,0.967093,0.590448,0.431872,1.000000,0.000000,0.000000,0.000000
0,-75,50,-->,0.967093,0.590448,0.431872,1.000000,0.000000,0.000000,0.000000
0,-75,75,-->,0.967093,0.590448,0.431872,1.000000,0.000000,0.000000,0.000000
0,-75,100,-->,0.967093,0.590448,0.431872,1.000000,0.000000,0.000000,0.000000
0,-75,128,-->,0.967093,0.590448,0.431872,1.000000,0.000000,0.000000,0.000000
0,-50,-127,-->,1.000000,0.216174,0.155646,0.614814,0.000000,0.000000,0.138231
0,-50,-100,-->,1.000000,0.225779,0.154717,0.628038,0.000000,0.000000,0.169408
0,-50,-75,-->,1.000000,0.252088,0.150676,0.618511,0.000000,0.000000,0.270633
0,-50,-50,-->,1.000000,0.275506,0.142285,0.622087,0.000000,0.000000,0.544923
0,-50,-25,-->,1.000000,0.403547,0.192873,0.809504,0.000000,0.000000,0.614928
0,-50,0,-->,0.967093,0.590448,0.431872,1.000000,0.000000,0.000000,0.000000
0,-50,25,-->,0.967093,0.590448,0.431872,1.000000,0.000000,0.000000,0.000000
0,-50,50,-->,0.967093,0.590448,0.431872,1.000000,0.000000,0.000000,0.000000
0,-50,75,-->,0.967093,0.590448,0.431872,1.000000,0.000000,0.000000,0.000000
0,-50,100,-->,0.967093,0.590448,0.431872,1.000000,0.000000,0.000000,0.000000
0,-50,128,-->,0.967093,0.590448,0.431872,1.000000,0.000000,0.000000,0.000000
0,-25,-127,-->,1.000000,0.216174,0.155646,0.614814,0.000000,0.000000,0.138231
0,-25,-100,-->,1.000000,0.225779,0.154717,0.628038,0.000000,0.000000,0.169408
0,-25,-75,-->,1.000000,0.252088,0.150676,0.618511,0.000000,0.000000,0.270633
0,-25,-50,-->,1.000000,0.275506,0.142285,0.622087,0.000000,0.000000,0.544923
0,-25,-25,-->,1.000000,0.403547,0.192873,0.809504,0.000000,0.000000,0.614928
0,-25,0,-->,0.967093,0.590448,0.431872,1.000000,0.000000,0.000000,0.000000
0,-25,25,-->,0.967093,0.590448,0.431872,1.000000,0.000000,0.000000,0.000000
0,-25,50,-->,0.967093,0.590448,0.431872,1.000000,0.000000,0.000000,0.000000
0,-25,75,-->,0.967093,0.590448,0.431872,1.000000,0.000000,0.000000,0.000000
0,-25,100,-->,0.967093,0.590448,0.431872,1.000000,0.000000,0.000000,0.000000
0,-25,128,-->,0.967093,0.590448,0.431872,1.000000,0.000000,0.000000,0.000000
0,0,-127,-->,1.000000,0.216174,0.155646,0.614814,0.000000,0.000000,0.138231
0,0,-100,-->,1.000000,0.225779,0.154717,0.628038,0.000000,0.000000,0.169408
0,0,-75,-->,1.000000,0.252088,0.150676,0.618511,0.000000,0.000000,0.270633
0,0,-50,-->,1.000000,0.275506,0.142285,0.622087,0.000000,0.000000,0.544923
0,0,-25,-->,1.000000,0.403547,0.192873,0.809504,0.000000,0.000000,0.614928
0,0,0,-->,0.967093,0.590448,0.431872,1.000000,0.000000,0.000000,0.000000
0,0,25,-->,0.967093,0.590448,0.431872,1.000000,0.000000,0.000000,0.000000
0,0,50,-->,0.967093,0.590448,0.431872,1.000000,0.000000,0.000000,0.000000
0,0,75,-->,0.967093,0.590448,0.431872,1.000000,0.000000,0.000000,0.000000
0,0,100,-->,0.967093,0.590448,0.431872,1.000000,0.000000,0.000000,0.000000
0,0,128,-->,0.967093,0.590448,0.431872,1.000000,0.000000,0.000000,0.000000
0,25,-127,-->,1.000000,0.216788,0.132395,0.554386,0.000000,0.000000,0.242765
0,25,-100,-->,1.000000,0.231463,0.123578,0.532008,0.000000,0.000000,0.341203
0,25,-75,-->,1.000000,0.198265,0.100427,0.480416,0.000000,0.000000,0.606738
0,25,-50,-->,0.831811,0.281467,0.060443,0.432954,0.000000,0.000000,0.896905
0,25,-25,-->,0.450267,0.672783,0.076052,0.536508,0.000000,0.000000,1.000000
0,25,0,-->,0.446273,0.883753,0.201068,0.824914,0.000000,0.000000,0.718891
0,25,25,-->,0.446273,0.883753,0.201068,0.824914,0.000000,0.000000,0.718891
0,25,50,-->,0.446273,0.883753,0.201068,0.824914,0.000000,0.000000,0.718891
0,25,75,-->,0.446273,0.883753,0.201068,0.824914,0.000000,0.000000,0.718891
0,25,100,-->,0.446273,0.883753,0.201068,0.824914,0.000000,0.000000,0.718891
0,25,128,-->,0.446273,0.883753,0.201068,0.824914,0.000000,0.000000,0.718891
0,50,-127,-->,1.000000,0.215274,0.104389,0.474686,0.000000,0.000000,0.364457
0,50,-100,-->,1.000000,0.165780,0.086422,0.423744,0.000000,0.000000,0.565615
0,50,-75,-->,0.886588,0.209857,0.049344,0.354103,0.000000,0.000000,0.830310
0,50,-50,-->,0.429928,0.565552,0.027896,0.337095,0.000000,0.000000,1.000000
0,50,-25,-->,0.163443,0.955065,0.066981,0.406721,0.000000,0.000000,0.862919
0,50,0,-->,0.264563,0.988326,0.212024,0.671102,0.052853,0.000000,0.257269
0,50,25,-->,0.264563,0.988326,0.212024,0.671102,0.052853,0.000000,0.257269
0,50,50,-->,0.264563,0.988326,0.212024,0.671102,0.052853,0.000000,0.257269
0,50,75,-->,0.264563,0.988326,0.212024,0.671102,0.052853,0.000000,0.257269
0,50,100,-->,0.264563,0.988326,0.212024,0.671102,0.052853,0.000000,0.257269
0,50,128,-->,0.264563,0.988326,0.212024,0.671102,0.052853,0.000000,0.257269
0,75,-127,-->,1.000000,0.150565,0.073052,0.367721,0.000000,0.000000,0.554686
0,75,-100,-->,0.963606,0.138835,0.044836,0.301023,0.000000,0.000000,0.778389
0,75,-75,-->,0.565140,0.399419,0.012198,0.170588,0.000000,0.000000,1.000000
0,75,-50,-->,0.085129,0.943293,0.023208,0.215048,0.000000,0.000000,0.931498
0,75,-25,-->,0.125519,1.000000,0.092066,0.396582,0.001617,0.000000,0.581342
0,75,0,-->,0.200298,1.000000,0.230963,0.633823,0.066314,0.000000,0.069212
0,75,25,-->,0.200298,1.000000,0.230963,0.633823,0.066314,0.000000,0.069212
0,75,50,-->,0.200298,1.000000,0.230963,0.633823,0.066314,0.000000,0.069212
0,75,75,-->,0.200298,1.000000,0.230963,0.633823,0.066314,0.000000,0.069212
0,75,100,-->,0.200298,1.000000,0.230963,0.633823,0.066314,0.000000,0.069212
0,75,128,-->,0.200298,1.000000,0.230963,0.633823,0.066314,0.000000,0.069212
0,100,-127,-->,1.000000,0.091523,0.037446,0.245436,0.000000,0.000000,0.752283
0,100,-100,-->,0.730304,0.237317,0.013863,0.149036,0.000000,0.000000,0.963390
0,100,-75,-->,0.079460,0.887920,0.004063,0.081215,0.000000,0.000000,0.970890
0,100,-50,-->,0.061348,1.000000,0.045348,0.225388,0.001653,0.000000,0.726246
0,100,-25,-->,0.138975,1.000000,0.124608,0.444348,0.008387,0.000000,0.338013
0,100,0,-->,0.176062,1.000000,0.231136,0.610654,0.075752,0.000000,0.024564
0,100,25,-->,0.176062,1.000000,0.231136,0.610654,0.075752,0.000000,0.024564
0,100,50,-->,0.176062,1.000000,0.231136,0.610654,0.075752,0.000000,0.024564
0,100,75,-->,0.176062,1.000000,0.231136,0.610654,0.075752,0.000000,0.024564
0,100,100,-->,0.176062,1.000000,0.231136,0.610654,0.075752,0.000000,0.024564
0,100,128,-->,0.176062,1.000000,0.231136,0.610654,0.075752,0.000000,0.024564
0,128,-127,-->,0.886746,0.116378,0.017487,0.143870,0.000000,0.000000,0.891853
0,128,-100,-->,0.138251,0.754238,0.000000,0.007535,0.000000,0.000000,0.996317
0,128,-75,-->,0.028651,0.993431,0.010079,0.081576,0.000000,0.000000,0.867181
0,128,-50,-->,0.078759,1.000000,0.059823,0.251431,0.004827,0.000000,0.595372
0,128,-25,-->,0.145598,1.000000,0.146544,0.484201,0.014847,0.000000,0.204080
0,128,0,-->,0.165782,1.000000,0.228370,0.595655,0.082745,0.000000,0.012197
0,128,25,-->,0.165782,1.000000,0.228370,0.595655,0.082745,0.000000,0.012197
0,128,50,-->,0.165782,1.000000,0.228370,0.595655,0.082745,0.000000,0.012197
0,128,75,-->,0.165782,1.000000,0.228370,0.595655,0.082745,0.000000,0.012197
0,128,100,-->,0.165782,1.000000,0.228370,0.595655,0.082745,0.000000,0.012197
0,128,128,-->,0.165782,1.000000,0.228370,0.595655,0.082745,0.000000,0.012197
20,-127,-127,-->,1.000000,0.140083,0.134909,0.503210,0.000000,0.000000,0.012772
20,-127,-100,-->,1.000000,0.135867,0.151330,0.514198,0.000000,0.037376,0.000000
20,-127,-75,-->,1.000000,0.126481,0.175362,0.506972,0.000000,0.135492,0.000000
20,-127,-50,-->,1.000000,0.111036,0.205775,0.490378,0.000000,0.307496,0.000000
20,-127,-25,-->,0.991262,0.084765,0.234643,0.464192,0.000000,0.708064,0.000000
20,-127,0,-->,0.750127,0.069322,0.377182,0.523843,0.000000,1.000000,0.000000
20,-127,25,-->,0.441313,0.075812,0.704454,0.556087,0.000000,1.000000,0.000000
20,-127,50,-->,0.376911,0.090958,0.818224,0.571136,0.000000,0.997231,0.000000
20,-127,75,-->,0.376911,0.090958,0.818224,0.571136,0.000000,0.997231,0.000000
20,-127,100,-->,0.376911,0.090958,0.818224,0.571136,0.000000,0.997231,0.000000
20,-127,128,-->,0.376911,0.090958,0.818224,0.571136,0.000000,0.997231,0.000000
20,-100,-127,-->,1.000000,0.140083,0.134909,0.503210,0.000000,0.000000,0.012772
20,-100,-100,-->,1.000000,0.135867,0.151330,0.514198,0.000000,0.037376,0.000000
20,-100,-75,-->,1.000000,0.126481,0.175362,0.506972,0.000000,0.135492,0.000000
20,-100,-50,-->,1.000000,0.111036,0.205775,0.490378,0.000000,0.307496,0.000000
20,-100,-25,-->,0.991262,0.084765,0.234643,0.464192,0.000000,0.708064,0.000000
20,-100,0,-->,0.750127,0.069322,0.377182,0.523843,0.000000,1.000000,0.000000
20,-100,25,-->,0.441313,0.075812,0.704454,0.556087,0.000000,1.000000,0.000000
20,-100,50,-->,0.376911,0.090958,0.818224,0.571136,0.000000,0.997231,0.000000
20,-100,75,-->,0.376911,0.090958,0.818224,0.571136,0.000000,0.997231,0.000000
20,-100,100,-->,0.376911,0.090958,0.818224,0.571136,0.000000,0.997231,0.000000
20,-100,128,-->,0.376911,0.090958,0.818224,0.571136,0.000000,0.997231,0.000000
20,-75,-127,-->,1.000000,0.140879,0.128006,0.490849,0.000000,0.000000,0.022928
20,-75,-100,-->,1.000000,0.139234,0.140709,0.511442,0.000000,0.005648,0.005713
20,-75,-75,-->,1.000000,0.131234,0.163964,0.511152,0.000000,0.085569,0.000000
20,-75,-50,-->,1.000000,0.116555,0.196055,0.496928,0.000000,0.242371,0.000000
20,-75,-25,-->,0.999729,0.088049,0.229664,0.463898,0.000000,0.640160,0.000000
20,-75,0,-->,0.751151,0.077056,0.391385,0.543849,0.000000,1.000000,0.000000
20,-75,25,-->,0.416787,0.083943,0.751432,0.568009,0.000000,1.000000,0.000000
20,-75,50,-->,0.358719,0.099448,0.864221,0.582363,0.000000,0.985394,0.000000
20,-75,75,-->,0.358719,0.099448,0.864221,0.582363,0.000000,0.985394,0.000000
20,-75,100,-->,0.358719,0.099448,0.864221,0.582363,0.000000,0.985394,0.000000
20,-75,128,-->,0.358719,0.099448,0.864221,0.582363,0.000000,0.985394,0.000000
20,-50,-127,-->,1.000000,0.140267,0.112186,0.453798,0.000000,0.000000,0.049979
20,-50,-100,-->,1.000000,0.140751,0.121035,0.474842,0.000000,0.000000,0.034415
20,-50,-75,-->,1.000000,0.140265,0.134052,0.501489,0.000000,0.000000,0.014384
20,-50,-50,-->,1.000000,0.131284,0.163567,0.511020,0.000000,0.084880,0.000000
20,-50,-25,-->,1.000000,0.120081,0.248753,0.529774,0.000000,0.407501,0.000000
20,-50,0,-->,0.786260,0.105164,0.429824,0.615400,0.000000,1.000000,0.000000
20,-50,25,-->,0.394024,0.119574,0.867165,0.638505,0.000000,0.971937,0.000000
20,-50,50,-->,0.353403,0.128596,0.936549,0.635309,0.000000,0.901327,0.000000
20,-50,75,-->,0.353403,0.128596,0.936549,0.635309,0.000000,0.901327,0.000000
20,-50,100,-->,0.353403,0.128596,0.936549,0.635309,0.000000,0.901327,0.000000
20,-50,128,-->,0.353403,0.128596,0.936549,0.635309,0.000000,0.901327,0.000000
20,-25,-127,-->,1.000000,0.137404,0.092603,0.399090,0.000000,0.000000,0.096841
20,-25,-100,-->,1.000000,0.138693,0.098163,0.417256,0.000000,0.000000,0.079550
20,-25,-75,-->,1.000000,0.139603,0.106505,0.439378,0.000000,0.000000,0.060951
20,-25,-50,-->,1.000000,0.147666,0.124117,0.486156,0.000000,0.000000,0.040275
20,-25,-25,-->,1.000000,0.181166,0.220718,0.650135,0.000000,0.093651,0.000000
20,-25,0,-->,0.894939,0.156505,0.491724,0.747625,0.000000,0.968987,0.000000
20,-25,25,-->,0.392805,0.170735,0.939170,0.726833,0.000000,0.767614,0.000000
20,-25,50,-->,0.367574,0.170295,0.962219,0.710671,0.000000,0.661110,0.000000
20,-25,75,-->,0.367574,0.170295,0.962219,0.710671,0.000000,0.661110,0.000000
20,-25,100,-->,0.367574,0.170295,0.962219,0.710671,0.000000,0.661110,0.000000
20,-25,128,-->,0.367574,0.170295,0.962219,0.710671,0.000000,0.661110,0.000000
20,0,-127,-->,1.000000,0.126296,0.072868,0.318756,0.000000,0.000000,0.174866
20,0,-100,-->,1.000000,0.126233,0.072852,0.318698,0.000000,0.000000,0.174758
20,0,-75,-->,1.000000,0.126141,0.072838,0.318631,0.000000,0.000000,0.174578
20,0,-50,-->,1.000000,0.163089,0.082532,0.379750,0.000000,0.000000,0.340057
20,0,-25,-->,1.000000,0.288101,0.139675,0.580509,0.000000,0.000000,0.470114
20,0,0,-->,0.482953,0.379231,0.380843,0.876034,0.000000,0.004654,0.000000
20,0,25,-->,0.331100,0.346596,0.894940,0.819725,0.000000,0.001261,0.000000
20,0,50,-->,0.315891,0.317648,0.900290,0.806267,0.000000,0.004379,0.000000
20,0,75,-->,0.315891,0.317648,0.900290,0.806267,0.000000,0.004379,0.000000
20,0,100,-->,0.315891,0.317648,0.900290,0.806267,0.000000,0.004379,0.000000
20,0,128,-->,0.315891,0.317648,0.900290,0.806267,0.000000,0.004379,0.000000
20,25,-127,-->,1.000000,0.105441,0.051579,0.230479,0.000000,0.000000,0.261487
20,25,-100,-->,1.000000,0.096641,0.045930,0.206274,0.000000,0.000000,0.287142
20,25,-75,-->,1.000000,0.070668,0.030424,0.154815,0.000000,0.000000,0.480394
20,25,-50,-->,0.813393,0.080382,0.019947,0.155311,0.000000,0.000000,0.923372
20,25,-25,-->,0.286013,0.549717,0.070535,0.359351,0.000000,0.000000,0.843611
20,25,0,-->,0.245572,0.974805,0.236702,0.736370,0.037728,0.000000,0.062403
20,25,25,-->,0.206321,0.813753,0.636186,0.764992,0.965729,0.000000,0.000000
20,25,50,-->,0.210884,0.685027,0.738026,0.760783,0.877171,0.000000,0.000000
20,25,75,-->,0.210884,0.685027,0.738026,0.760783,0.877171,0.000000,0.000000
20,25,100,-->,0.210884,0.685027,0.738026,0.760783,0.877171,0.000000,0.000000
20,25,128,-->,0.210884,0.685027,0.738026,0.760783,0.877171,0.000000,0.000000
20,50,-127,-->,1.000000,0.068840,0.030839,0.141845,0.000000,0.000000,0.356412
20,50,-100,-->,1.000000,0.042311,0.018595,0.090030,0.000000,0.000000,0.443675
20,50,-75,-->,0.738528,0.045683,0.000000,0.000000,0.000000,0.000000,0.942109
20,50,-50,-->,0.092747,0.452990,0.000000,0.000000,0.000000,0.000000,0.973974
20,50,-25,-->,0.000000,0.991297,0.000000,0.003674,0.000000,0.000000,0.852001
20,50,0,-->,0.139644,1.000000,0.185583,0.518741,0.060852,0.000000,0.000000
20,50,25,-->,0.108810,1.000000,0.272838,0.515870,0.505064,0.000000,0.000000
20,50,50,-->,0.108182,0.995385,0.304074,0.537643,0.696583,0.000000,0.000000
20,50,75,-->,0.108182,0.995385,0.304074,0.537643,0.696583,0.000000,0.000000
20,50,100,-->,0.108182,0.995385,0.304074,0.537643,0.696583,0.000000,0.000000
20,50,128,-->,0.108182,0.995385,0.304074,0.537643,0.696583,0.000000,0.000000
20,75,-127,-->,0.999944,0.027730,0.011694,0.059518,0.000000,0.000000,0.446614
20,75,-100,-->,0.864699,0.018116,0.000000,0.000000,0.000000,0.000000,0.874481
20,75,-75,-->,0.130718,0.367971,0.000000,0.000000,0.000000,0.000000,0.954859
20,75,-50,-->,0.002955,0.909031,0.000000,0.000000,0.000000,0.000000,0.725399
20,75,-25,-->,0.026242,1.000000,0.037103,0.101497,0.017335,0.000000,0.323916
20,75,0,-->,0.077776,1.000000,0.139564,0.331169,0.127091,0.000000,0.000000
20,75,25,-->,0.070554,1.000000,0.177169,0.357236,0.382317,0.000000,0.000000
20,75,50,-->,0.067984,1.000000,0.180676,0.366726,0.503638,0.000000,0.000000
20,75,75,-->,0.067984,1.000000,0.180676,0.366726,0.503638,0.000000,0.000000
20,75,100,-->,0.067984,1.000000,0.180676,0.366726,0.503638,0.000000,0.000000
20,75,128,-->,0.067984,1.000000,0.180676,0.366726,0.503638,0.000000,0.000000
20,100,-127,-->,0.970253,0.001610,0.000000,0.000000,0.000000,0.000000,0.671530
20,100,-100,-->,0.213288,0.254416,0.000000,0.000000,0.000000,0.000000,0.964247
20,100,-75,-->,0.018394,0.851219,0.000000,0.000000,0.000000,0.000000,0.669074
20,100,-50,-->,0.001185,1.000000,0.004535,0.009986,0.003584,0.000000,0.446736
20,100,-25,-->,0.049237,1.000000,0.076908,0.199315,0.037039,0.000000,0.150342
20,100,0,-->,0.076937,1.000000,0.138991,0.327774,0.126762,0.000000,0.000000
20,100,25,-->,0.071993,1.000000,0.171243,0.349440,0.304883,0.000000,0.000000
20,100,50,-->,0.070294,1.000000,0.178331,0.357870,0.391747,0.000000,0.000000
20,100,75,-->,0.070294,1.000000,0.178331,0.357870,0.391747,0.000000,0.000000
20,100,100,-->,0.070294,1.000000,0.178331,0.357870,0.391747,0.000000,0.000000
20,100,128,-->,0.070294,1.000000,0.178331,0.357870,0.391747,0.000000,0.000000
20,128,-127,-->,0.489183,0.103913,0.000000,0.000000,0.000000,0.000000,0.965675
20,128,-100,-->,0.043050,0.750108,0.000000,0.000000,0.000000,0.000000,0.722000
20,128,-75,-->,0.000000,0.971619,0.000000,0.000000,0.000000,0.000000,0.528668
20,128,-50,-->,0.006801,1.000000,0.016269,0.039150,0.009551,0.000000,0.386567
20,128,-25,-->,0.065295,1.000000,0.099335,0.260787,0.046799,0.000000,0.065122
20,128,0,-->,0.076953,1.000000,0.139085,0.327792,0.126367,0.000000,0.000000
20,128,25,-->,0.072770,1.000000,0.166000,0.344486,0.264874,0.000000,0.000000
20,128,50,-->,0.071508,1.000000,0.173616,0.352257,0.331420,0.000000,0.000000
20,128,75,-->,0.071508,1.000000,0.173616,0.352257,0.331420,0.000000,0.000000
20,128,100,-->,0.071508,1.000000,0.173616,0.352257,0.331420,0.000000,0.000000
20,128,128,-->,0.071508,1.000000,0.173616,0.352257,0.331420,0.000000,0.000000
40,-127,-127,-->,1.000000,0.034730,0.051923,0.116771,0.000000,0.126884,0.000000
40,-127,-100,-->,1.000000,0.027393,0.052888,0.104687,0.000000,0.224003,0.000000
40,-127,-75,-->,1.000000,0.018862,0.046367,0.085261,0.000000,0.381478,0.000000
40,-127,-50,-->,1.000000,0.007869,0.021124,0.049087,0.000000,0.636355,0.000000
40,-127,-25,-->,0.912263,0.001754,0.045595,0.037888,0.000000,0.927310,0.000000
40,-127,0,-->,0.679717,0.003732,0.277455,0.108368,0.000000,1.000000,0.000000
40,-127,25,-->,0.414656,0.006972,0.576846,0.178239,0.000000,1.000000,0.000000
40,-127,50,-->,0.194501,0.014354,0.785504,0.190932,0.000000,1.000000,0.000000
40,-127,75,-->,0.122054,0.020583,0.889062,0.213179,0.000000,0.980172,0.000000
40,-127,100,-->,0.122054,0.020583,0.889062,0.213179,0.000000,0.980172,0.000000
40,-127,128,-->,0.122054,0.020583,0.889062,0.213179,0.000000,0.980172,0.000000
40,-100,-127,-->,1.000000,0.038355,0.048887,0.117893,0.000000,0.072512,0.005592
40,-100,-100,-->,1.000000,0.033718,0.052161,0.115468,0.000000,0.140446,0.000000
40,-100,-75,-->,1.000000,0.024185,0.052591,0.098057,0.000000,0.268977,0.000000
40,-100,-50,-->,1.000000,0.012770,0.033559,0.066515,0.000000,0.515675,0.000000
40,-100,-25,-->,0.917476,0.003924,0.047875,0.057120,0.000000,0.920907,0.000000
40,-100,0,-->,0.669650,0.005673,0.294753,0.140000,0.000000,1.000000,0.000000
40,-100,25,-->,0.385444,0.010784,0.605110,0.217228,0.000000,1.000000,0.000000
40,-100,50,-->,0.164926,0.019293,0.835522,0.221673,0.000000,0.993486,0.000000
40,-100,75,-->,0.099699,0.025685,0.937528,0.229767,0.000000,0.951569,0.000000
40,-100,100,-->,0.099699,0.025685,0.937528,0.229767,0.000000,0.951569,0.000000
40,-100,128,-->,0.099699,0.025685,0.937528,0.229767,0.000000,0.951569,0.000000
40,-75,-127,-->,1.000000,0.037962,0.038699,0.101660,0.000000,0.029782,0.029801
40,-75,-100,-->,1.000000,0.038645,0.047332,0.116142,0.000000,0.063323,0.009075
40,-75,-75,-->,1.000000,0.033725,0.052189,0.115514,0.000000,0.140574,0.000000
40,-75,-50,-->,1.000000,0.023231,0.055520,0.104867,0.000000,0.364461,0.000000
40,-75,-25,-->,0.940618,0.009260,0.051441,0.094476,0.000000,0.886383,0.000000
40,-75,0,-->,0.660038,0.008916,0.314400,0.194611,0.000000,1.000000,0.000000
40,-75,25,-->,0.344429,0.018793,0.656710,0.283656,0.000000,1.000000,0.000000
40,-75,50,-->,0.134683,0.030396,0.913305,0.275546,0.000000,0.966178,0.000000
40,-75,75,-->,0.096345,0.035115,0.985662,0.262493,0.000000,0.880409,0.000000
40,-75,100,-->,0.096345,0.035115,0.985662,0.262493,0.000000,0.880409,0.000000
40,-75,128,-->,0.096345,0.035115,0.985662,0.262493,0.000000,0.880409,0.000000
40,-50,-127,-->,1.000000,0.032725,0.025944,0.071234,0.000000,0.000159,0.066130
40,-50,-100,-->,1.000000,0.036058,0.032911,0.088439,0.000000,0.014387,0.045357
40,-50,-75,-->,1.000000,0.038971,0.043248,0.110580,0.000000,0.045545,0.019989
40,-50,-50,-->,1.000000,0.049232,0.078385,0.186126,0.000000,0.146898,0.000000
40,-50,-25,-->,1.000000,0.028992,0.086340,0.196389,0.000000,0.694841,0.000000
40,-50,0,-->,0.519422,0.047200,0.284952,0.328653,0.000000,0.932549,0.000000
40,-50,25,-->,0.249000,0.047961,0.768201,0.387448,0.000000,0.975680,0.000000
40,-50,50,-->,0.146364,0.052818,0.983296,0.351910,0.000000,0.849894,0.000000
40,-50,75,-->,0.138712,0.054499,1.000000,0.327842,0.000000,0.718036,0.000000
40,-50,100,-->,0.138712,0.054499,1.000000,0.327842,0.000000,0.718036,0.000000
40,-50,128,-->,0.138712,0.054499,1.000000,0.327842,0.000000,0.718036,0.000000
40,-25,-127,-->,1.000000,0.021515,0.014125,0.039719,0.000000,0.000000,0.116456
40,-25,-100,-->,1.000000,0.024996,0.017185,0.048090,0.000000,0.000000,0.101659
40,-25,-75,-->,1.000000,0.040643,0.026132,0.082874,0.000000,0.000000,0.122360
40,-25,-50,-->,1.000000,0.071925,0.046679,0.181521,0.000000,0.000000,0.122922
40,-25,-25,-->,0.879962,0.106725,0.145727,0.409803,0.000000,0.069175,0.000000
40,-25,0,-->,0.551040,0.113095,0.386233,0.471471,0.000000,0.412997,0.000000
40,-25,25,-->,0.301670,0.115774,0.803813,0.507525,0.000000,0.538765,0.000000
40,-25,50,-->,0.217607,0.100214,1.000000,0.474604,0.000000,0.488238,0.000000
40,-25,75,-->,0.192933,0.091574,1.000000,0.434618,0.000000,0.414666,0.000000
40,-25,100,-->,0.192933,0.091574,1.000000,0.434618,0.000000,0.414666,0.000000
40,-25,128,-->,0.192933,0.091574,1.000000,0.434618,0.000000,0.414666,0.000000
40,0,-127,-->,1.000000,0.008667,0.002085,0.008295,0.000000,0.000000,0.185836
40,0,-100,-->,0.998214,0.010672,0.002805,0.011060,0.000000,0.000000,0.196789
40,0,-75,-->,0.989486,0.000000,0.000000,0.000000,0.000000,0.000000,0.374705
40,0,-50,-->,0.818639,0.038212,0.003799,0.016800,0.000000,0.000000,0.469897
40,0,-25,-->,0.606647,0.259303,0.086995,0.331570,0.000000,0.000000,0.226690
40,0,0,-->,0.261264,0.211903,0.251798,0.647822,0.000000,0.000000,0.000000
40,0,25,-->,0.193062,0.214213,0.752165,0.636384,0.000000,0.000000,0.000000
40,0,50,-->,0.169321,0.190045,1.000000,0.590836,0.012092,0.000000,0.000000
40,0,75,-->,0.158101,0.165693,1.000000,0.560708,0.000000,0.000000,0.000000
40,0,100,-->,0.158101,0.165693,1.000000,0.560708,0.000000,0.000000,0.000000
40,0,128,-->,0.158101,0.165693,1.000000,0.560708,0.000000,0.000000,0.000000
40,25,-127,-->,0.957626,0.001012,0.000000,0.000000,0.000000,0.000000,0.315018
40,25,-100,-->,0.950397,0.000000,0.000000,0.000000,0.000000,0.000000,0.412703
40,25,-75,-->,0.769409,0.047801,0.000000,0.000000,0.000000,0.000000,0.580519
40,25,-50,-->,0.394671,0.151493,0.000000,0.000000,0.000000,0.000000,0.641231
40,25,-25,-->,0.236752,0.455541,0.033436,0.124011,0.000000,0.000000,0.450788
40,25,0,-->,0.133178,0.638545,0.207573,0.493641,0.020475,0.000000,0.000000
40,25,25,-->,0.126952,0.465229,0.504892,0.499758,0.400739,0.000000,0.000000
40,25,50,-->,0.108697,0.256246,1.000000,0.524481,0.587568,0.000000,0.000000
40,25,75,-->,0.112980,0.249025,1.000000,0.509141,0.377823,0.000000,0.000000
40,25,100,-->,0.112980,0.249025,1.000000,0.509141,0.377823,0.000000,0.000000
40,25,128,-->,0.112980,0.249025,1.000000,0.509141,0.377823,0.000000,0.000000
40,50,-127,-->,0.887919,0.011025,0.000000,0.000000,0.000000,0.000000,0.518311
40,50,-100,-->,0.787433,0.046309,0.000000,0.000000,0.000000,0.000000,0.651491
40,50,-75,-->,0.345105,0.160204,0.000000,0.000000,0.000000,0.000000,0.723873
40,50,-50,-->,0.128984,0.526453,0.000000,0.000000,0.000000,0.000000,0.584889
40,50,-25,-->,0.054599,0.740053,0.000000,0.000000,0.000000,0.000000,0.453201
40,50,0,-->,0.081028,0.893426,0.131200,0.346023,0.057423,0.000000,0.000000
40,50,25,-->,0.059510,0.810073,0.211416,0.295220,0.502245,0.000000,0.000000
40,50,50,-->,0.031457,0.619881,0.325463,0.341424,0.990174,0.000000,0.000000
40,50,75,-->,0.045744,0.335861,0.775730,0.388310,0.962959,0.000000,0.000000
40,50,100,-->,0.045744,0.335861,0.775730,0.388310,0.962959,0.000000,0.000000
40,50,128,-->,0.045744,0.335861,0.775730,0.388310,0.962959,0.000000,0.000000
40,75,-127,-->,0.698651,0.072038,0.000000,0.000000,0.000000,0.000000,0.712405
40,75,-100,-->,0.377657,0.153970,0.000000,0.000000,0.000000,0.000000,0.781460
40,75,-75,-->,0.126157,0.510562,0.000000,0.000000,0.000000,0.000000,0.672285
40,75,-50,-->,0.039292,0.794428,0.000000,0.000000,0.000000,0.000000,0.479981
40,75,-25,-->,0.000000,0.964426,0.000000,0.000000,0.000000,0.000000,0.280337
40,75,0,-->,0.025920,1.000000,0.045499,0.087016,0.093534,0.000000,0.004614
40,75,25,-->,0.014348,1.000000,0.039981,0.073568,0.434011,0.000000,0.000000
40,75,50,-->,0.007152,1.000000,0.013879,0.057603,0.783520,0.000000,0.000000
40,75,75,-->,0.004901,0.849995,0.123255,0.090302,0.987206,0.000000,0.000000
40,75,100,-->,0.004901,0.849995,0.123255,0.090302,0.987206,0.000000,0.000000
40,75,128,-->,0.004901,0.849995,0.123255,0.090302,0.987206,0.000000,0.000000
40,100,-127,-->,0.339550,0.167335,0.000000,0.000000,0.000000,0.000000,0.797231
40,100,-100,-->,0.139951,0.463474,0.000000,0.000000,0.000000,0.000000,0.732823
40,100,-75,-->,0.041478,0.790004,0.000000,0.000000,0.000000,0.000000,0.498637
40,100,-50,-->,0.000000,0.963808,0.000000,0.000000,0.000000,0.000000,0.251445
40,100,-25,-->,0.010937,1.000000,0.015641,0.025073,0.029457,0.000000,0.013065
40,100,0,-->,0.006898,1.000000,0.016820,0.023480,0.205903,0.000000,0.000000
40,100,25,-->,0.003862,1.000000,0.011060,0.018084,0.405146,0.000000,0.000000
40,100,50,-->,0.002319,1.000000,0.004168,0.014290,0.597805,0.000000,0.000000
40,100,75,-->,0.001006,1.000000,0.000000,0.008168,0.776394,0.000000,0.000000
40,100,100,-->,0.001006,1.000000,0.000000,0.008168,0.776394,0.000000,0.000000
40,100,128,-->,0.001006,1.000000,0.000000,0.008168,0.776394,0.000000,0.000000
40,128,-127,-->,0.156077,0.409101,0.000000,0.000000,0.000000,0.000000,0.759458
40,128,-100,-->,0.053216,0.756432,0.000000,0.000000,0.000000,0.000000,0.534249
40,128,-75,-->,0.002924,0.938746,0.000000,0.000000,0.000000,0.000000,0.263768
40,128,-50,-->,0.004175,1.000000,0.005080,0.007172,0.012794,0.000000,0.034858
40,128,-25,-->,0.005501,1.000000,0.009871,0.014451,0.104084,0.000000,0.000000
40,128,0,-->,0.005077,1.000000,0.012782,0.017988,0.237646,0.000000,0.000000
40,128,25,-->,0.003579,1.000000,0.009814,0.015987,0.377883,0.000000,0.000000
40,128,50,-->,0.002673,1.000000,0.007447,0.015075,0.523921,0.000000,0.000000
40,128,75,-->,0.001768,1.000000,0.001061,0.011037,0.642052,0.000000,0.000000
40,128,100,-->,0.001768,1.000000,0.001061,0.011037,0.642052,0.000000,0.000000
40,128,128,-->,0.001768,1.000000,0.001061,0.011037,0.642052,0.000000,0.000000
60,-127,-127,-->,0.996594,0.000000,0.000000,0.000000,0.000000,0.116551,0.000000
60,-127,-100,-->,0.988302,0.000000,0.000000,0.000000,0.000000,0.176625,0.000000
60,-127,-75,-->,0.980448,0.000000,0.000000,0.000000,0.000000,0.214055,0.000000
60,-127,-50,-->,0.932035,0.000000,0.004480,0.000000,0.000000,0.342881,0.000000
60,-127,-25,-->,0.747205,0.000000,0.051304,0.000000,0.000000,0.657790,0.000000
60,-127,0,-->,0.349341,0.000000,0.141164,0.000000,0.000000,0.932370,0.000000
60,-127,25,-->,0.169285,0.000000,0.399031,0.000000,0.000000,0.990486,0.000000
60,-127,50,-->,0.112363,0.000000,0.734992,0.000000,0.000000,0.992260,0.000000
60,-127,75,-->,0.037399,0.000000,0.899122,0.000000,0.000000,0.970897,0.000000
60,-127,100,-->,0.000000,0.000000,0.989825,0.000000,0.000000,0.936545,0.000000
60,-127,128,-->,0.000000,0.000000,0.989982,0.000000,0.000000,0.924755,0.000000
60,-100,-127,-->,0.999531,0.000000,0.000000,0.000000,0.000000,0.055135,0.000000
60,-100,-100,-->,0.994918,0.000000,0.000000,0.000000,0.000000,0.128428,0.000000
60,-100,-75,-->,0.985876,0.000000,0.000000,0.000000,0.000000,0.192720,0.000000
60,-100,-50,-->,0.931133,0.000000,0.004121,0.000000,0.000000,0.322996,0.000000
60,-100,-25,-->,0.736609,0.000000,0.055910,0.000000,0.000000,0.646441,0.000000
60,-100,0,-->,0.313373,0.000000,0.150651,0.000000,0.000000,0.941933,0.000000
60,-100,25,-->,0.153632,0.000000,0.458909,0.000000,0.000000,0.987832,0.000000
60,-100,50,-->,0.085671,0.000000,0.809265,0.000000,0.000000,0.988814,0.000000
60,-100,75,-->,0.006321,0.000000,0.949379,0.000000,0.000000,0.952592,0.000000
60,-100,100,-->,0.000000,0.000000,0.986951,0.000000,0.000000,0.855923,0.000000
60,-100,128,-->,0.000000,0.000000,0.986690,0.000000,0.000000,0.840402,0.000000
60,-75,-127,-->,0.980249,0.000000,0.000000,0.000000,0.000000,0.004537,0.003201
60,-75,-100,-->,0.998004,0.000000,0.000000,0.000000,0.000000,0.041988,0.000000
60,-75,-75,-->,0.994865,0.000000,0.000000,0.000000,0.000000,0.128523,0.000000
60,-75,-50,-->,0.934291,0.000000,0.002899,0.000000,0.000000,0.266312,0.000000
60,-75,-25,-->,0.730183,0.000000,0.060279,0.000000,0.000000,0.603872,0.000000
60,-75,0,-->,0.260587,0.000000,0.159474,0.000000,0.000000,0.943295,0.000000
60,-75,25,-->,0.112674,0.000000,0.495741,0.000000,0.000000,0.969689,0.000000
60,-75,50,-->,0.050680,0.000000,0.878713,0.000000,0.000000,0.979803,0.000000
60,-75,75,-->,0.000000,0.000000,0.985611,0.000000,0.000000,0.874612,0.000000
60,-75,100,-->,0.005230,0.001887,0.993891,0.011220,0.000000,0.729334,0.000000
60,-75,128,-->,0.007257,0.002626,0.995030,0.015373,0.000000,0.714217,0.000000
60,-50,-127,-->,0.943467,0.001377,0.000000,0.000000,0.000000,0.000000,0.034257
60,-50,-100,-->,0.966216,0.000000,0.000000,0.000000,0.000000,0.000000,0.013547
60,-50,-75,-->,0.990700,0.000000,0.000000,0.000000,0.000000,0.018563,0.000000
60,-50,-50,-->,0.937091,0.000000,0.001287,0.000000,0.000000,0.147639,0.000000
60,-50,-25,-->,0.700666,0.000000,0.068682,0.000000,0.000000,0.477136,0.000000
60,-50,0,-->,0.325718,0.008277,0.200621,0.037775,0.000000,0.679105,0.000000
60,-50,25,-->,0.158698,0.014891,0.529834,0.076290,0.000000,0.726548,0.000000
60,-50,50,-->,0.057204,0.013543,0.885917,0.085512,0.000000,0.768981,0.000000
60,-50,75,-->,0.026337,0.009681,1.000000,0.056934,0.000000,0.688737,0.000000
60,-50,100,-->,0.027004,0.009944,1.000000,0.051435,0.000000,0.570458,0.000000
60,-50,128,-->,0.028061,0.010375,1.000000,0.053014,0.000000,0.557594,0.000000
60,-25,-127,-->,0.867331,0.008738,0.000000,0.000000,0.000000,0.000000,0.107864
60,-25,-100,-->,0.894509,0.004794,0.000000,0.000000,0.000000,0.000000,0.083260
60,-25,-75,-->,0.925492,0.002505,0.000000,0.000000,0.000000,0.000000,0.051515
60,-25,-50,-->,0.837816,0.009676,0.000000,0.000493,0.000000,0.000000,0.035765
60,-25,-25,-->,0.654925,0.037292,0.113557,0.118482,0.000000,0.083467,0.000000
60,-25,0,-->,0.412520,0.053273,0.297855,0.181778,0.000000,0.259005,0.000000
60,-25,25,-->,0.240054,0.055535,0.581401,0.214937,0.000000,0.331009,0.000000
60,-25,50,-->,0.133755,0.049842,0.886842,0.226740,0.000000,0.383192,0.000000
60,-25,75,-->,0.093299,0.040283,1.000000,0.190649,0.000000,0.368100,0.000000
60,-25,100,-->,0.071964,0.032169,1.000000,0.140830,0.000000,0.308489,0.000000
60,-25,128,-->,0.071511,0.032263,1.000000,0.140006,0.000000,0.299406,0.000000
60,0,-127,-->,0.727475,0.043664,0.000000,0.000000,0.000000,0.000000,0.209699
60,0,-100,-->,0.727280,0.043816,0.000000,0.000000,0.000000,0.000000,0.209693
60,0,-75,-->,0.726197,0.044273,0.000000,0.000000,0.000000,0.000000,0.209664
60,0,-50,-->,0.572444,0.104214,0.000000,0.000000,0.000000,0.000000,0.212005
60,0,-25,-->,0.433642,0.194560,0.033973,0.095430,0.000000,0.000000,0.118662
60,0,0,-->,0.178056,0.138858,0.194412,0.386600,0.000000,0.000000,0.000000
60,0,25,-->,0.118658,0.155887,0.554008,0.369490,0.000000,0.000000,0.000000
60,0,50,-->,0.089312,0.123121,0.864279,0.384710,0.007820,0.000000,0.000000
60,0,75,-->,0.086754,0.106548,1.000000,0.322348,0.025252,0.000000,0.000000
60,0,100,-->,0.075704,0.085518,1.000000,0.255199,0.019331,0.005938,0.000000
60,0,128,-->,0.074900,0.083764,1.000000,0.249311,0.019289,0.007673,0.000000
60,25,-127,-->,0.574282,0.115342,0.000000,0.000000,0.000000,0.000000,0.281034
60,25,-100,-->,0.537529,0.133781,0.000000,0.000000,0.000000,0.000000,0.298164
60,25,-75,-->,0.476680,0.159701,0.000000,0.000000,0.000000,0.000000,0.324304
60,25,-50,-->,0.293642,0.246113,0.000000,0.000000,0.000000,0.000000,0.314149
60,25,-25,-->,0.176668,0.407694,0.000000,0.000000,0.000000,0.000000,0.196750
60,25,0,-->,0.065070,0.473915,0.167731,0.203693,0.006494,0.000000,0.000000
60,25,25,-->,0.060443,0.329389,0.395554,0.208897,0.222764,0.000000,0.000000
60,25,50,-->,0.051408,0.214125,0.695906,0.216587,0.333589,0.000000,0.000000
60,25,75,-->,0.044357,0.115816,1.000000,0.227276,0.405591,0.000000,0.000000
60,25,100,-->,0.042022,0.105285,1.000000,0.193851,0.290327,0.000000,0.000000
60,25,128,-->,0.041976,0.103147,1.000000,0.191271,0.278936,0.000000,0.000000
60,50,-127,-->,0.432996,0.174898,0.000000,0.000000,0.000000,0.000000,0.344470
60,50,-100,-->,0.353751,0.198938,0.000000,0.000000,0.000000,0.000000,0.381933
60,50,-75,-->,0.246875,0.271835,0.000000,0.000000,0.000000,0.000000,0.404508
60,50,-50,-->,0.127537,0.520398,0.000000,0.000000,0.000000,0.000000,0.244013
60,50,-25,-->,0.053916,0.648602,0.000000,0.000000,0.000000,0.000000,0.088665
60,50,0,-->,0.007256,0.665255,0.071402,0.024209,0.079737,0.000000,0.000000
60,50,25,-->,0.006317,0.533572,0.172465,0.023246,0.378136,0.000000,0.000000
60,50,50,-->,0.012202,0.305026,0.271743,0.056876,0.660569,0.000000,0.000000
60,50,75,-->,0.013873,0.130700,0.590722,0.093755,0.860372,0.000000,0.000000
60,50,100,-->,0.010735,0.050159,0.989771,0.081463,0.823782,0.000000,0.000000
60,50,128,-->,0.011412,0.044983,0.999270,0.082577,0.796238,0.000000,0.000000
60,75,-127,-->,0.291424,0.229994,0.000000,0.000000,0.000000,0.000000,0.402568
60,75,-100,-->,0.205158,0.331534,0.000000,0.000000,0.000000,0.000000,0.395504
60,75,-75,-->,0.130072,0.527042,0.000000,0.000000,0.000000,0.000000,0.338621
60,75,-50,-->,0.055843,0.696819,0.000000,0.000000,0.000000,0.000000,0.203720
60,75,-25,-->,0.004378,0.797891,0.000000,0.000000,0.000000,0.000000,0.029087
60,75,0,-->,0.000000,0.855537,0.013986,0.000000,0.119433,0.000000,0.000000
60,75,25,-->,0.000000,0.776260,0.050186,0.000000,0.426414,0.000000,0.000000
60,75,50,-->,0.000000,0.646441,0.079683,0.000000,0.700019,0.000000,0.000000
60,75,75,-->,0.000000,0.487110,0.105700,0.000000,0.948686,0.000000,0.000000
60,75,100,-->,0.000000,0.314321,0.510502,0.000000,1.000000,0.000000,0.000000
60,75,128,-->,0.000000,0.283072,0.565562,0.000000,1.000000,0.000000,0.000000
60,100,-127,-->,0.189549,0.363347,0.000000,0.000000,0.000000,0.000000,0.386729
60,100,-100,-->,0.129839,0.528007,0.000000,0.000000,0.000000,0.000000,0.338565
60,100,-75,-->,0.064194,0.693082,0.000000,0.000000,0.000000,0.000000,0.289041
60,100,-50,-->,0.010384,0.836874,0.000000,0.000000,0.000000,0.000000,0.109717
60,100,-25,-->,0.000000,0.938358,0.000000,0.000000,0.007407,0.000000,0.000000
60,100,0,-->,0.000000,0.958744,0.000000,0.000000,0.189831,0.000000,0.000000
60,100,25,-->,0.000000,0.935004,0.006311,0.000000,0.412029,0.000000,0.000000
60,100,50,-->,0.000000,0.898421,0.016652,0.000000,0.615809,0.000000,0.000000
60,100,75,-->,0.000000,0.754112,0.035385,0.000000,0.804154,0.000000,0.000000
60,100,100,-->,0.000000,0.627635,0.150271,0.000000,0.975234,0.000000,0.000000
60,100,128,-->,0.000000,0.593890,0.189335,0.000000,0.981375,0.000000,0.000000
60,128,-127,-->,0.135341,0.511804,0.000000,0.000000,0.000000,0.000000,0.342981
60,128,-100,-->,0.082396,0.650258,0.000000,0.000000,0.000000,0.000000,0.307606
60,128,-75,-->,0.016888,0.824248,0.000000,0.000000,0.000000,0.000000,0.173969
60,128,-50,-->,0.000000,0.943112,0.000000,0.000000,0.000000,0.000000,0.014490
60,128,-25,-->,0.000000,0.998450,0.000000,0.000000,0.084286,0.000000,0.000000
60,128,0,-->,0.000000,0.984609,0.000000,0.000000,0.254566,0.000000,0.000000
60,128,25,-->,0.000000,0.975184,0.000000,0.000000,0.409223,0.000000,0.000000
60,128,50,-->,0.000000,0.970164,0.000108,0.000000,0.549530,0.000000,0.000000
60,128,75,-->,0.000000,0.908088,0.008931,0.000000,0.693405,0.000000,0.000000
60,128,100,-->,0.000000,0.802679,0.022059,0.000000,0.842734,0.000000,0.000000
60,128,128,-->,0.000000,0.785380,0.021884,0.000000,0.869737,0.000000,0.000000
80,-127,-127,-->,0.724203,0.000000,0.031058,0.000000,0.000000,0.080077,0.000000
80,-127,-100,-->,0.722310,0.000000,0.042261,0.000000,0.000000,0.137606,0.000000
80,-127,-75,-->,0.716691,0.000000,0.052301,0.000000,0.000000,0.211560,0.000000
80,-127,-50,-->,0.708779,0.000000,0.062331,0.000000,0.000000,0.298536,0.000000
80,-127,-25,-->,0.646207,0.000000,0.094762,0.000000,0.000000,0.423861,0.000000
80,-127,0,-->,0.320312,0.000000,0.164115,0.000000,0.000000,0.724988,0.000000
80,-127,25,-->,0.134809,0.000000,0.309001,0.000000,0.000000,0.823695,0.000000
80,-127,50,-->,0.078328,0.000000,0.603566,0.000000,0.000000,0.859449,0.000000
80,-127,75,-->,0.031406,0.000000,0.812297,0.000000,0.000000,0.861176,0.000000
80,-127,100,-->,0.008091,0.000000,0.927933,0.000000,0.000000,0.825177,0.000000
80,-127,128,-->,0.003719,0.000000,0.952320,0.000000,0.000000,0.759392,0.000000
80,-100,-127,-->,0.709592,0.000000,0.024407,0.000000,0.000000,0.040999,0.000000
80,-100,-100,-->,0.712443,0.000000,0.037298,0.000000,0.000000,0.085521,0.000000
80,-100,-75,-->,0.705787,0.000000,0.050502,0.000000,0.000000,0.155880,0.000000
80,-100,-50,-->,0.690197,0.000000,0.066064,0.000000,0.000000,0.253691,0.000000
80,-100,-25,-->,0.623458,0.000000,0.102638,0.000000,0.000000,0.389635,0.000000
80,-100,0,-->,0.290944,0.000000,0.176533,0.000000,0.000000,0.696905,0.000000
80,-100,25,-->,0.135499,0.000000,0.362002,0.000000,0.000000,0.770731,0.000000
80,-100,50,-->,0.077952,0.000000,0.645716,0.000000,0.000000,0.787305,0.000000
80,-100,75,-->,0.028014,0.000000,0.843027,0.000000,0.000000,0.792795,0.000000
80,-100,100,-->,0.006287,0.000000,0.938397,0.000000,0.000000,0.743345,0.000000
80,-100,128,-->,0.000399,0.000000,0.966561,0.000000,0.000000,0.686688,0.000000
80,-75,-127,-->,0.672263,0.000000,0.009232,0.000000,0.000000,0.006163,0.000000
80,-75,-100,-->,0.688442,0.000000,0.029012,0.000000,0.000000,0.029514,0.000000
80,-75,-75,-->,0.692577,0.000000,0.043837,0.000000,0.000000,0.076564,0.000000
80,-75,-50,-->,0.674195,0.000000,0.064970,0.000000,0.000000,0.170609,0.000000
80,-75,-25,-->,0.597287,0.000000,0.110443,0.000000,0.000000,0.311878,0.000000
80,-75,0,-->,0.273140,0.000000,0.199583,0.000000,0.000000,0.629311,0.000000
80,-75,25,-->,0.144279,0.000000,0.437474,0.000000,0.000000,0.679588,0.000000
80,-75,50,-->,0.070352,0.000000,0.712429,0.000000,0.000000,0.687099,0.000000
80,-75,75,-->,0.015533,0.000000,0.893265,0.000000,0.000000,0.698465,0.000000
80,-75,100,-->,0.002427,0.000000,0.964668,0.000000,0.000000,0.634794,0.000000
80,-75,128,-->,0.001887,0.000000,0.984196,0.000000,0.000000,0.577478,0.000000
80,-50,-127,-->,0.615617,0.014620,0.000000,0.000000,0.000000,0.000000,0.000000
80,-50,-100,-->,0.625876,0.001232,0.000000,0.000000,0.000000,0.000000,0.000000
80,-50,-75,-->,0.640491,0.000000,0.021384,0.000000,0.000000,0.018178,0.000000
80,-50,-50,-->,0.640174,0.000000,0.054648,0.000000,0.000000,0.079586,0.000000
80,-50,-25,-->,0.571037,0.000000,0.110384,0.000000,0.000000,0.200053,0.000000
80,-50,0,-->,0.304774,0.000000,0.223843,0.000000,0.000000,0.453606,0.000000
80,-50,25,-->,0.160680,0.000000,0.471191,0.000000,0.000000,0.517587,0.000000
80,-50,50,-->,0.065785,0.000000,0.738808,0.000000,0.000000,0.541030,0.000000
80,-50,75,-->,0.008017,0.000000,0.942692,0.000000,0.000000,0.538183,0.000000
80,-50,100,-->,0.000000,0.000000,0.994521,0.000000,0.000000,0.489772,0.000000
80,-50,128,-->,0.000000,0.000000,1.000000,0.000000,0.000000,0.432776,0.000000
80,-25,-127,-->,0.554841,0.049355,0.000000,0.000000,0.000000,0.000000,0.012352
80,-25,-100,-->,0.550071,0.036287,0.000000,0.000000,0.000000,0.000000,0.006462
80,-25,-75,-->,0.546215,0.017406,0.000000,0.000000,0.000000,0.000000,0.000453
80,-25,-50,-->,0.553163,0.001054,0.006911,0.000000,0.000000,0.000000,0.000000
80,-25,-25,-->,0.502465,0.000000,0.074622,0.000000,0.000000,0.040844,0.000000
80,-25,0,-->,0.290434,0.000000,0.217930,0.000000,0.000000,0.190091,0.000000
80,-25,25,-->,0.161531,0.000000,0.455466,0.000000,0.000000,0.241803,0.000000
80,-25,50,-->,0.073360,0.000000,0.697200,0.000000,0.000000,0.288322,0.000000
80,-25,75,-->,0.009347,0.000950,0.956908,0.005064,0.000000,0.328530,0.000000
80,-25,100,-->,0.007223,0.002399,1.000000,0.008780,0.000000,0.261361,0.000000
80,-25,128,-->,0.006261,0.002066,1.000000,0.007197,0.000000,0.224907,0.000000
80,0,-127,-->,0.459101,0.110390,0.000000,0.000000,0.000000,0.000000,0.058250
80,0,-100,-->,0.443554,0.109559,0.000000,0.000000,0.000000,0.000000,0.050325
80,0,-75,-->,0.423622,0.108778,0.000000,0.000000,0.000000,0.000000,0.036713
80,0,-50,-->,0.388027,0.106550,0.000000,0.000000,0.000000,0.000000,0.020514
80,0,-25,-->,0.288691,0.122635,0.000000,0.000000,0.000000,0.000000,0.000585
80,0,0,-->,0.100991,0.070061,0.138158,0.121400,0.000000,0.000000,0.000000
80,0,25,-->,0.057436,0.101443,0.439107,0.100237,0.000000,0.000000,0.000000
80,0,50,-->,0.039288,0.075743,0.679365,0.099212,0.009872,0.000000,0.000000
80,0,75,-->,0.037256,0.051907,0.915258,0.103413,0.021197,0.000000,0.000000
80,0,100,-->,0.018477,0.027261,1.000000,0.043036,0.038359,0.000000,0.000000
80,0,128,-->,0.012710,0.017721,1.000000,0.027504,0.034481,0.000071,0.000000
80,25,-127,-->,0.364525,0.155927,0.000000,0.000000,0.000000,0.000000,0.106733
80,25,-100,-->,0.333237,0.166670,0.000000,0.000000,0.000000,0.000000,0.106775
80,25,-75,-->,0.285921,0.191857,0.000000,0.000000,0.000000,0.000000,0.096866
80,25,-50,-->,0.193733,0.247396,0.000000,0.000000,0.000000,0.000000,0.066526
80,25,-25,-->,0.035960,0.338996,0.000000,0.000000,0.000000,0.000000,0.000000
80,25,0,-->,0.000000,0.342679,0.106191,0.000000,0.013413,0.000000,0.000000
80,25,25,-->,0.000000,0.224410,0.300384,0.000000,0.165437,0.000000,0.000000
80,25,50,-->,0.000000,0.137632,0.539749,0.000000,0.254234,0.000000,0.000000
80,25,75,-->,0.000000,0.038750,0.766959,0.000000,0.353007,0.000000,0.000000
80,25,100,-->,0.000000,0.000000,1.000000,0.000000,0.361815,0.000000,0.000000
80,25,128,-->,0.000810,0.000651,1.000000,0.002104,0.285923,0.000000,0.000000
80,50,-127,-->,0.277133,0.205455,0.000000,0.000000,0.000000,0.000000,0.129978
80,50,-100,-->,0.224461,0.247393,0.000000,0.000000,0.000000,0.000000,0.114777
80,50,-75,-->,0.155699,0.328847,0.000000,0.000000,0.000000,0.000000,0.064948
80,50,-50,-->,0.079512,0.419978,0.000000,0.000000,0.000000,0.000000,0.011535
80,50,-25,-->,0.000000,0.503985,0.000000,0.000000,0.000043,0.000000,0.000000
80,50,0,-->,0.000000,0.534221,0.098809,0.000000,0.076259,0.000000,0.000000
80,50,25,-->,0.000000,0.399017,0.205171,0.000000,0.281398,0.000000,0.000000
80,50,50,-->,0.000000,0.215446,0.311899,0.000000,0.513963,0.000000,0.000000
80,50,75,-->,0.000000,0.113134,0.605120,0.000000,0.631496,0.000000,0.000000
80,50,100,-->,0.000000,0.015284,0.898150,0.000000,0.671175,0.000000,0.000000
80,50,128,-->,0.000000,0.000000,1.000000,0.000000,0.609501,0.000000,0.000000
80,75,-127,-->,0.196739,0.296158,0.000000,0.000000,0.000000,0.000000,0.112418
80,75,-100,-->,0.139105,0.374907,0.000000,0.000000,0.000000,0.000000,0.068964
80,75,-75,-->,0.094493,0.445511,0.000000,0.000000,0.000000,0.000000,0.032555
80,75,-50,-->,0.021676,0.539692,0.000000,0.000000,0.000000,0.000000,0.000212
80,75,-25,-->,0.000000,0.650079,0.022220,0.000000,0.025307,0.000000,0.000000
80,75,0,-->,0.000000,0.656947,0.069241,0.000000,0.136141,0.000000,0.000000
80,75,25,-->,0.000000,0.565912,0.133744,0.000000,0.329097,0.000000,0.000000
80,75,50,-->,0.000000,0.401782,0.184136,0.000000,0.550503,0.000000,0.000000
80,75,75,-->,0.000000,0.221421,0.234486,0.000000,0.745969,0.000000,0.000000
80,75,100,-->,0.000000,0.110203,0.452244,0.000000,0.854797,0.000000,0.000000
80,75,128,-->,0.000000,0.039807,0.762616,0.000000,0.861421,0.000000,0.000000
80,100,-127,-->,0.138605,0.392074,0.000000,0.000000,0.000000,0.000000,0.079304
80,100,-100,-->,0.100856,0.458678,0.000000,0.000000,0.000000,0.000000,0.050202
80,100,-75,-->,0.052407,0.537074,0.000000,0.000000,0.000000,0.000000,0.017925
80,100,-50,-->,0.000000,0.645988,0.000000,0.000000,0.000000,0.000000,0.000000
80,100,-25,-->,0.000000,0.740032,0.026709,0.000000,0.057552,0.000000,0.000000
80,100,0,-->,0.000000,0.725559,0.050298,0.000000,0.173714,0.000000,0.000000
80,100,25,-->,0.000000,0.660889,0.092531,0.000000,0.333298,0.000000,0.000000
80,100,50,-->,0.000000,0.570558,0.138304,0.000000,0.491442,0.000000,0.000000
80,100,75,-->,0.000000,0.436942,0.161472,0.000000,0.653781,0.000000,0.000000
80,100,100,-->,0.000000,0.259007,0.151309,0.000000,0.805300,0.000000,0.000000
80,100,128,-->,0.000000,0.164752,0.235896,0.000000,0.898744,0.000000,0.000000
80,128,-127,-->,0.108275,0.460673,0.000000,0.000000,0.000000,0.000000,0.063502
80,128,-100,-->,0.071186,0.530665,0.000000,0.000000,0.000000,0.000000,0.034470
80,128,-75,-->,0.021333,0.614341,0.000000,0.000000,0.000000,0.000000,0.010760
80,128,-50,-->,0.000000,0.727098,0.000184,0.000000,0.011874,0.000000,0.000000
80,128,-25,-->,0.000000,0.786766,0.023105,0.000000,0.081921,0.000000,0.000000
80,128,0,-->,0.000000,0.758066,0.041092,0.000000,0.193614,0.000000,0.000000
80,128,25,-->,0.000000,0.705899,0.071440,0.000000,0.329718,0.000000,0.000000
80,128,50,-->,0.000000,0.644525,0.104316,0.000000,0.462334,0.000000,0.000000
80,128,75,-->,0.000000,0.552658,0.133895,0.000000,0.589165,0.000000,0.000000
80,128,100,-->,0.000000,0.434454,0.144347,0.000000,0.712909,0.000000,0.000000
80,128,128,-->,0.000000,0.303525,0.117853,0.000000,0.820325,0.000000,0.000000
100,-127,-127,-->,0.636755,0.000000,0.052601,0.000000,0.000000,0.071780,0.000000
100,-127,-100,-->,0.629132,0.000000,0.069276,0.000000,0.000000,0.113156,0.000000
100,-127,-75,-->,0.615559,0.000000,0.086039,0.000000,0.000000,0.159644,0.000000
100,-127,-50,-->,0.588764,0.000000,0.107520,0.000000,0.000000,0.225052,0.000000
100,-127,-25,-->,0.537780,0.000000,0.137187,0.000000,0.000000,0.330296,0.000000
100,-127,0,-->,0.326094,0.000000,0.200197,0.000000,0.000000,0.556443,0.000000
100,-127,25,-->,0.181028,0.000000,0.302805,0.000000,0.000000,0.645311,0.000000
100,-127,50,-->,0.125947,0.000000,0.520891,0.000000,0.000000,0.674997,0.000000
100,-127,75,-->,0.077629,0.000000,0.687602,0.000000,0.000000,0.689848,0.000000
100,-127,100,-->,0.039164,0.000000,0.813890,0.000000,0.000000,0.686110,0.000000
100,-127,128,-->,0.017406,0.000000,0.887120,0.000000,0.000000,0.677317,0.000000
100,-100,-127,-->,0.620115,0.000000,0.039234,0.000000,0.000000,0.035621,0.000000
100,-100,-100,-->,0.614172,0.000000,0.059512,0.000000,0.000000,0.068631,0.000000
100,-100,-75,-->,0.602076,0.000000,0.078957,0.000000,0.000000,0.111499,0.000000
100,-100,-50,-->,0.573080,0.000000,0.105590,0.000000,0.000000,0.172383,0.000000
100,-100,-25,-->,0.518618,0.000000,0.142315,0.000000,0.000000,0.280426,0.000000
100,-100,0,-->,0.341523,0.000000,0.212007,0.000000,0.000000,0.462204,0.000000
100,-100,25,-->,0.186202,0.000000,0.344536,0.000000,0.000000,0.574569,0.000000
100,-100,50,-->,0.124361,0.000000,0.564877,0.000000,0.000000,0.601534,0.000000
100,-100,75,-->,0.067632,0.000000,0.732028,0.000000,0.000000,0.619556,0.000000
100,-100,100,-->,0.028957,0.000000,0.848101,0.000000,0.000000,0.625908,0.000000
100,-100,128,-->,0.016075,0.000000,0.905389,0.000000,0.000000,0.591773,0.000000
100,-75,-127,-->,0.582011,0.000000,0.014907,0.000000,0.000000,0.000000,0.000000
100,-75,-100,-->,0.588852,0.000000,0.035317,0.000000,0.000000,0.013361,0.000000
100,-75,-75,-->,0.587783,0.000000,0.060525,0.000000,0.000000,0.045026,0.000000
100,-75,-50,-->,0.551254,0.000000,0.093344,0.000000,0.000000,0.098263,0.000000
100,-75,-25,-->,0.491963,0.000000,0.145177,0.000000,0.000000,0.199802,0.000000
100,-75,0,-->,0.332772,0.000000,0.221339,0.000000,0.000000,0.361408,0.000000
100,-75,25,-->,0.180879,0.000000,0.411195,0.000000,0.000000,0.473406,0.000000
100,-75,50,-->,0.112124,0.000000,0.620531,0.000000,0.000000,0.474615,0.000000
100,-75,75,-->,0.055161,0.000000,0.765809,0.000000,0.000000,0.508819,0.000000
100,-75,100,-->,0.019132,0.000000,0.884447,0.000000,0.000000,0.509488,0.000000
100,-75,128,-->,0.008093,0.000000,0.934045,0.000000,0.000000,0.485472,0.000000
100,-50,-127,-->,0.523235,0.005261,0.000000,0.000000,0.000000,0.000000,0.000000
100,-50,-100,-->,0.523312,0.000000,0.008092,0.000000,0.000000,0.000000,0.000000
100,-50,-75,-->,0.519056,0.000000,0.030652,0.000000,0.000000,0.000000,0.000000
100,-50,-50,-->,0.504079,0.000000,0.068962,0.000000,0.000000,0.030347,0.000000
100,-50,-25,-->,0.455519,0.000000,0.135397,0.000000,0.000000,0.112045,0.000000
100,-50,0,-->,0.295002,0.000000,0.229912,0.000000,0.000000,0.245929,0.000000
100,-50,25,-->,0.168261,0.000000,0.461662,0.000000,0.000000,0.294563,0.000000
100,-50,50,-->,0.087828,0.000000,0.659173,0.000000,0.000000,0.303345,0.000000
100,-50,75,-->,0.035843,0.000000,0.807724,0.000000,0.000000,0.339458,0.000000
100,-50,100,-->,0.009436,0.000000,0.923446,0.000000,0.000000,0.360257,0.000000
100,-50,128,-->,0.003914,0.000000,0.960454,0.000000,0.000000,0.334341,0.000000
100,-25,-127,-->,0.458056,0.044444,0.000000,0.000000,0.000000,0.000000,0.004808
100,-25,-100,-->,0.441998,0.028799,0.000000,0.000000,0.000000,0.000000,0.000848
100,-25,-75,-->,0.414704,0.007811,0.000000,0.000000,0.000000,0.000000,0.000000
100,-25,-50,-->,0.389179,0.000000,0.014589,0.000000,0.000000,0.000000,0.000000
100,-25,-25,-->,0.357461,0.000000,0.072859,0.000000,0.000000,0.008102,0.000000
100,-25,0,-->,0.234904,0.000000,0.212396,0.000000,0.000000,0.085051,0.000000
100,-25,25,-->,0.139453,0.000000,0.446777,0.000000,0.000000,0.113159,0.000000
100,-25,50,-->,0.064955,0.000000,0.653980,0.000000,0.000000,0.124207,0.000000
100,-25,75,-->,0.016374,0.000000,0.834673,0.000000,0.000000,0.126443,0.000000
100,-25,100,-->,0.002414,0.000000,0.951219,0.000000,0.000000,0.132254,0.000000
100,-25,128,-->,0.000365,0.000000,0.988920,0.000000,0.000000,0.125580,0.000000
100,0,-127,-->,0.390307,0.106618,0.000000,0.000000,0.000000,0.000000,0.020854
100,0,-100,-->,0.363126,0.103670,0.000000,0.000000,0.000000,0.000000,0.011740
100,0,-75,-->,0.324740,0.097644,0.000000,0.000000,0.000000,0.000000,0.002359
100,0,-50,-->,0.265189,0.080007,0.000000,0.000000,0.000000,0.000000,0.000000
100,0,-25,-->,0.154562,0.042232,0.000000,0.000000,0.000000,0.000000,0.000000
100,0,0,-->,0.003723,0.000000,0.072034,0.000000,0.000000,0.000000,0.000000
100,0,25,-->,0.005607,0.023428,0.350921,0.000000,0.000000,0.000000,0.000000
100,0,50,-->,0.006504,0.030661,0.597309,0.000000,0.000000,0.000000,0.000000
100,0,75,-->,0.000000,0.010844,0.808505,0.000000,0.020552,0.000000,0.000000
100,0,100,-->,0.000000,0.000000,0.953512,0.000000,0.017835,0.000000,0.000000
100,0,128,-->,0.000000,0.000000,1.000000,0.000000,0.018959,0.000000,0.000000
100,25,-127,-->,0.312994,0.157102,0.000000,0.000000,0.000000,0.000000,0.054477
100,25,-100,-->,0.273691,0.165669,0.000000,0.000000,0.000000,0.000000,0.046151
100,25,-75,-->,0.215879,0.180823,0.000000,0.000000,0.000000,0.000000,0.032782
100,25,-50,-->,0.123538,0.200333,0.000000,0.000000,0.000000,0.000000,0.006730
100,25,-25,-->,0.000000,0.218708,0.000000,0.000000,0.000000,0.000000,0.000000
100,25,0,-->,0.000000,0.250632,0.096049,0.000000,0.003217,0.000000,0.000000
100,25,25,-->,0.000000,0.196569,0.313335,0.000000,0.098323,0.000000,0.000000
100,25,50,-->,0.000000,0.143271,0.507711,0.000000,0.169499,0.000000,0.000000
100,25,75,-->,0.000000,0.077341,0.682406,0.000000,0.230492,0.000000,0.000000
100,25,100,-->,0.000000,0.016384,0.891223,0.000000,0.270917,0.000000,0.000000
100,25,128,-->,0.000000,0.000000,0.979403,0.000000,0.247002,0.000000,0.000000
100,50,-127,-->,0.235299,0.208596,0.000000,0.000000,0.000000,0.000000,0.074832
100,50,-100,-->,0.179035,0.241269,0.000000,0.000000,0.000000,0.000000,0.051462
100,50,-75,-->,0.098501,0.285773,0.000000,0.000000,0.000000,0.000000,0.013610
100,50,-50,-->,0.007924,0.321562,0.000000,0.000000,0.000000,0.000000,0.000000
100,50,-25,-->,0.000000,0.365733,0.021296,0.000000,0.000000,0.000000,0.000000
100,50,0,-->,0.000000,0.405014,0.115799,0.000000,0.042638,0.000000,0.000000
100,50,25,-->,0.000000,0.311310,0.218726,0.000000,0.170561,0.000000,0.000000
100,50,50,-->,0.000000,0.210967,0.376497,0.000000,0.283863,0.000000,0.000000
100,50,75,-->,0.000000,0.148040,0.545322,0.000000,0.354981,0.000000,0.000000
100,50,100,-->,0.000000,0.082114,0.706551,0.000000,0.430267,0.000000,0.000000
100,50,128,-->,0.000000,0.031947,0.850483,0.000000,0.452310,0.000000,0.000000
100,75,-127,-->,0.163907,0.284018,0.000000,0.000000,0.000000,0.000000,0.054815
100,75,-100,-->,0.097919,0.339604,0.000000,0.000000,0.000000,0.000000,0.011705
100,75,-75,-->,0.047077,0.374641,0.000000,0.000000,0.000000,0.000000,0.000000
100,75,-50,-->,0.000000,0.407012,0.000000,0.000000,0.000000,0.000000,0.000000
100,75,-25,-->,0.000000,0.476354,0.047453,0.000000,0.001884,0.000000,0.000000
100,75,0,-->,0.000000,0.492485,0.113032,0.000000,0.074103,0.000000,0.000000
100,75,25,-->,0.000000,0.414517,0.182859,0.000000,0.185656,0.000000,0.000000
100,75,50,-->,0.000000,0.291219,0.258500,0.000000,0.324606,0.000000,0.000000
100,75,75,-->,0.000000,0.197830,0.375287,0.000000,0.442529,0.000000,0.000000
100,75,100,-->,0.000000,0.145693,0.544315,0.000000,0.506380,0.000000,0.000000
100,75,128,-->,0.000000,0.098781,0.669074,0.000000,0.549597,0.000000,0.000000
100,100,-127,-->,0.103557,0.365633,0.000000,0.000000,0.000000,0.000000,0.020403
100,100,-100,-->,0.066969,0.403723,0.000000,0.000000,0.000000,0.000000,0.004151
100,100,-75,-->,0.022283,0.432819,0.000000,0.000000,0.000000,0.000000,0.000000
100,100,-50,-->,0.000000,0.499860,0.012523,0.000000,0.000000,0.000000,0.000000
100,100,-25,-->,0.000000,0.555735,0.060764,0.000000,0.020509,0.000000,0.000000
100,100,0,-->,0.000000,0.557283,0.100743,0.000000,0.099702,0.000000,0.000000
100,100,25,-->,0.000000,0.495513,0.152927,0.000000,0.195571,0.000000,0.000000
100,100,50,-->,0.000000,0.396760,0.206630,0.000000,0.320351,0.000000,0.000000
100,100,75,-->,0.000000,0.272177,0.243904,0.000000,0.473408,0.000000,0.000000
100,100,100,-->,0.000000,0.199180,0.352816,0.000000,0.565705,0.000000,0.000000
100,100,128,-->,0.000000,0.154816,0.477001,0.000000,0.614145,0.000000,0.000000
100,128,-127,-->,0.082960,0.416279,0.000000,0.000000,0.000000,0.000000,0.013535
100,128,-100,-->,0.043793,0.452924,0.000000,0.000000,0.000000,0.000000,0.000000
100,128,-75,-->,0.000000,0.505986,0.000000,0.000000,0.000000,0.000000,0.000000
100,128,-50,-->,0.000000,0.572780,0.023912,0.000000,0.010858,0.000000,0.000000
100,128,-25,-->,0.000000,0.611155,0.063711,0.000000,0.045035,0.000000,0.000000
100,128,0,-->,0.000000,0.600984,0.089028,0.000000,0.118132,0.000000,0.000000
100,128,25,-->,0.000000,0.557019,0.128103,0.000000,0.204779,0.000000,0.000000
100,128,50,-->,0.000000,0.476300,0.173169,0.000000,0.318054,0.000000,0.000000
100,128,75,-->,0.000000,0.371113,0.203690,0.000000,0.437000,0.000000,0.000000
100,128,100,-->,0.000000,0.268842,0.242361,0.000000,0.566587,0.000000,0.000000
100,128,128,-->,0.000000,0.208876,0.306790,0.000000,0.639202,0.000000,0.000000
-1,0,0,-->,0.967093,0.590448,0.431872,1.000000,0.000000,0.000000,0.000000
101,0,0,-->,0.003759,0.000000,0.072657,0.000000,0.000000,0.000000,0.000000
50,-130,0,-->,0.507262,0.000000,0.187501,0.000000,0.000000,0.998002,0.000000
50,130,0,-->,0.000000,1.000000,0.000000,0.000000,0.268632,0.000000,0.000000
50,0,-130,-->,0.932896,0.000000,0.000000,0.000000,0.000000,0.000000,0.279923
50,0,130,-->,0.111149,0.122042,1.000000,0.414138,0.007504,0.000000,0.000000
